0,0,0,0,0,0,0,0,0,0,0,0,1.0834739188520812,-1.4617686464510733,-0.35844816666223606,-0.1543708389247464,3.2589752505988177,3.258612544371193,0.7442169242163806,-0.15520128669754107,-0.1326356092257034,0.5982209799553132,3.25921521892729,3.259085793386196,28448793
0,0,0,0,0,0,0,0,0,0,0,0,0.8116613998009443,-1.320860817535021,-0.34450718695010984,-0.9079056153184908,3.2588584135602012,3.258402473736104,0.7351229113486899,-0.21743726938215127,-0.1403720307793654,0.7313019074561485,3.258834416727354,3.2593525122824323,28449850
0,0,0,0,0,0,0,0,0,0,0,0,0.33773260566384855,-1.0746450513178172,-0.47789928649655417,-0.822029605153752,3.258961088533531,3.2591975163456812,0.5953708643163281,-0.14775282713804566,-0.14046880489215907,0.9168442388587282,3.2589366983099817,3.259136147396105,28450907
0,0,0,0,0,0,0,0,0,0,0,0,0.6493727862087233,-1.57904667604526,-0.39355435294560825,-0.46604131055370696,3.258819467880662,3.258702237451343,1.0465848859053712,-0.18993139146940605,-0.1402638483362017,0.9301416313817061,3.2593690346919337,3.259214038755183,28451963
0,0,0,0,0,0,0,0,0,0,0,0,0.6209510947407596,-1.412234462765987,-0.5110302580631086,-0.7713730777946803,3.2588178943178523,3.25870656474907,0.34751662582357234,-0.1852925283065472,-0.1494786321495333,0.6360887689696274,3.2590031813386893,3.2590944479816493,28453020
0,0,0,0,0,0,0,0,0,0,0,0,0.9330031553510613,-1.3676215967680927,-0.32302215373780174,-0.7332794825171807,3.2588281224761153,3.258870608671976,0.4853520733537761,-0.21707889045225268,-0.1301127946511262,0.3399603772116157,3.2593875240549472,3.259313566602893,28454077
0,0,0,0,0,0,0,0,0,0,0,0,0.8198454999739527,-1.8038501863301022,0.007104636085586081,-0.6114113702072347,3.258898539411847,3.258664471943911,0.8347050469762143,-0.27643367963238713,-0.10890038119559065,0.6348271649869877,3.259589726875988,3.259066517241778,28455133
0,0,0,0,0,0,0,0,0,0,0,0,0.5062261708052361,-0.8297180330417195,0.4168057104117525,-2.4124291434799603,3.259060616381242,3.258970136519687,1.2023963215823557,-0.3288049970632788,-0.11299872553333347,1.2875178083798655,3.2589622687056385,3.258756918758978,28456190
0,0,0,0,0,0,0,0,0,0,0,0,1.491330384174631,-0.9212207104230774,-1.6209278370055957,-1.034160427351049,3.258677060446389,3.2586778472277933,1.128977814790942,-0.21410800386762663,-0.1422178199550891,0.5020109894288765,3.2593953918689955,3.2588076661595897,28457247
0,0,0,0,0,0,0,0,0,0,0,0,1.454519242586999,-1.4376593038629655,-0.22575748273819476,-0.6538629476860699,3.2589473198589465,3.2585771392079756,0.08712423886349664,-0.03975999829292277,-0.1431615642501788,0.018152620572164126,3.259404439855151,3.2591994832991933,28458303
0,0,0,0,0,0,0,0,0,0,0,0,1.390361152930397,-1.2263278515729727,0.1115376724645701,-0.7331968704696739,3.2588930319420135,3.2586538503949463,0.1673173269411715,-0.1757815212942983,-0.12893340932529082,0.4782427165797611,3.258995313524641,3.2590488146601695,28459360
0,0,0,0,0,0,0,0,0,0,0,0,1.0724239674119909,-0.9410369802757478,-0.23913158644814328,-0.8372384830997566,3.258846611839129,3.2587246607213807,0.16056241519003095,-0.26333770314904487,-0.1412264753850073,0.7792853449923212,3.2593324493566094,3.2594095539342822,28460417
0,0,0,0,0,0,0,0,0,0,0,0,0.9524752083391199,-1.130231944350236,-0.26233573702999796,-0.9681356988114951,3.2590889405118153,3.259020097138893,0.2733129111901416,-0.24883653507668196,-0.14477092561375207,0.40789659117419613,3.2590437005810378,3.2595598291826042,28461473
0,0,0,0,0,0,0,0,0,0,0,0,0.3826912620891645,-0.9989275692614995,-0.0021884324775257678,-1.090043543582385,3.259029145125049,3.2588529060903673,0.16871189698122702,-0.19990895985471724,-0.12679021677854263,0.5858338935177199,3.259168405433703,3.2589201759004798,28462530
0,0,0,0,0,0,0,0,0,0,0,0,0.8206495905696857,-1.0203952932829015,-0.33824716070260535,-0.8645409780193541,3.2588442514949145,3.2585661242683077,0.3813769437524013,-0.1856422526409927,-0.13527290049468285,0.7656146246927529,3.259466988976835,3.2594248961716765,28463587
0,0,0,0,0,0,0,0,0,0,0,0,0.65378308937348,-0.9069602974605915,-0.2225151565689035,-0.9165389676736554,3.2592699002349255,3.2592777680489737,0.8061295397436069,0.009384728596774172,-0.1284310493983089,1.2064490325986184,3.2591298531448665,3.2595468472894247,28464643
0,0,0,0,0,0,0,0,0,0,0,0,0.26918073525199115,-1.0329417029549721,0.0641112761630149,-0.5880860552890367,3.2585728119102493,3.258698303544319,0.9895731317488111,-0.13183033845786313,-0.15885745988577124,1.9445648604112695,3.259412701059902,3.2590417336275257,28465700
0,0,0,0,0,0,0,0,0,0,0,0,0.6448668891032802,0.6571056672460636,-1.2931440822057823,-0.8243246465116318,3.258701450669938,3.2585051487094336,0.3902809489108263,-0.2879710421527674,-0.12824851611238908,0.45276476773795693,3.2592553447789365,3.259297044193392,28466757
0,0,0,0,0,0,0,0,0,0,0,0,1.1093963991876126,-1.2617589785765384,-0.2883927569857546,-0.5691718303170001,3.2587171862980346,3.258939058654196,0.222583213160421,-0.10205695653640705,-0.13419422318866528,0.5356246513872923,3.258968956347579,3.2591137241260677,28467814
0,0,0,0,0,0,0,0,0,0,0,0,1.2417680432519964,-1.329116121425166,-0.14510452092939866,-1.0203913593758773,3.2588261555226032,3.2586888621674612,0.5643095212351705,-0.17064423211148166,-0.13904276359591047,0.6972995754837483,3.259709711040224,3.259560615964009,28468871
0,0,0,0,0,0,0,0,0,0,0,0,0.34847020488622243,-1.211925817957618,-0.23306904233325032,-0.7422956040257935,3.259035045985585,3.258492953597659,1.1200683021626832,-0.16378192469858224,-0.11279770288440023,1.168859764201613,3.2592624258115794,3.2590437005810378,28469928
0,0,0,0,0,0,0,0,0,0,0,0,1.0434511355699463,-1.5689711533750477,-0.22307495153843776,-0.6250329166690012,3.2587474773821206,3.2586314271249086,0.9331140915291418,-0.1551049059754498,-0.13622097208749914,1.2528034392360972,3.25923803558803,3.258930404058743,28470984
0,0,0,0,0,0,0,0,0,0,0,0,0.5072639354782027,-1.5689385019467474,-0.4080535540644591,-1.1920898785698268,3.259111363781853,3.2587978313920294,0.7694619857623559,-0.11555655188042543,-0.12452467972334381,0.6832559207982922,3.259550781196449,3.259496099888813,28472041
0,0,0,0,0,0,0,0,0,0,0,0,0.025403991389750406,-1.6246752768367858,-0.2723325815597274,-0.9980255243808656,3.259405226636556,3.259009475589928,0.4737238375811383,-0.12350107711566413,-0.12887597428273848,0.7963502402723122,3.2592270206483622,3.2588883112535845,28473098
0,0,0,0,0,0,0,0,0,0,0,0,0.7697342121284261,-1.4446888023243907,-0.4094638597326111,-0.955670721014824,3.2583619544937554,3.258489413081337,0.51594174098274,-0.14215566422410778,-0.11969580885121928,0.7687137566463657,3.2592195462250166,3.259257705123151,28474155
0,0,0,0,0,0,0,0,0,0,0,0,0.7359364433212808,-1.3763316603102278,-0.38879157171148915,-0.8982954738492338,3.259018130185381,3.2589245031982066,0.35638915972580426,-0.13739445655279833,-0.12491689025364998,0.39359683914146887,3.2592777680489737,3.2591211985494133,28475212
0,0,0,0,0,0,0,0,0,0,0,0,0.609043158178706,-1.5681973538634006,-0.19470046695476376,-0.2164632340029757,3.2590417336275257,3.259066517241778,0.969230898527014,-0.37113580359647314,-0.12886299238955884,-0.2173731466976579,3.2593324493566094,3.25905550230211,28476268
0,0,0,0,0,0,0,0,0,0,0,0,1.98236026553634,-2.1184616468503052,-0.2777928445092254,0.7778907749522657,3.2585940550081793,3.2586333940784207,-0.21981885669456205,-0.36051150089639433,-0.1332736889450179,0.1317532338801901,3.2592482637462927,3.259422535827462,28477325
0,0,0,0,0,0,0,0,0,0,0,0,0.9941785567019649,-1.0009212733413306,0.07134337083618293,-1.0553130454198176,3.259092087637435,3.259216005708695,0.08104871285542402,-0.11512303532636585,-0.11806677795252536,0.8090898047792678,3.2593127798214887,3.258929617277338,28478382
0,0,0,0,0,0,0,0,0,0,0,0,1.1278047237163453,-0.9953201765203686,-0.045151024478796056,-0.780078814039089,3.258940632217006,3.2591463755543675,0.2521850767356249,-0.1765647621828034,-0.16726107207072638,0.5898578870127067,3.2593674611291243,3.259199876689896,28479439
0,0,0,0,0,0,0,0,0,0,0,0,1.0213587071131118,-0.8216936494938909,0.2294415866662963,-0.7594466518696131,3.2586943696372948,3.258638901548254,-0.038840250830680226,-0.19034641866045218,-0.12500776350590748,0.1387028740290253,3.259316713728513,3.2593273352774776,28480496
0,0,0,0,0,0,0,0,0,0,0,0,0.7636767820926644,-0.7314761795373176,-0.17915248622327876,-0.720564701624477,3.259018916966786,3.2590464543159547,-0.046353619856073836,-0.19735113350762526,-0.14759311051286583,0.3759359569473215,3.2596314262904436,3.2593670677384217,28481552
0,0,0,0,0,0,0,0,0,0,0,0,0.8143667476614412,-0.7233097819459179,0.007649088817726232,-0.6027430060795553,3.25859248144537,3.25869358285589,0.41940798990821715,-0.20766033025507094,-0.1426147511738242,0.8735390035556558,3.259378082678089,3.259311599649381,28482547
0,0,0,0,0,0,0,0,0,0,0,0,0.8674929818502642,-0.996501528799716,0.053971237417607,-0.7292326723614541,3.2587663601358363,3.2585429142168656,0.6233661202628755,-0.22787982557771508,-0.10860455138737575,0.8361676736077873,3.2590661238510754,3.2589642356591506,28483541
0,0,0,0,0,0,0,0,0,0,0,0,1.3907852281075987,-1.1905041206483984,-0.20095183860681518,-0.8916751017183187,3.258651490050732,3.2589284371052307,0.4702557051486617,-0.08068954714412058,-0.11826937416426826,0.7237157611508084,3.259254164606829,3.259261639030175,28484536
0,0,0,0,0,0,0,0,0,0,0,0,1.0096321236648707,-1.3859858615381553,-0.40808266497643764,-1.0011565209813738,3.2585452745610803,3.2587616394474077,0.9139862554056949,-0.2270619663073976,-0.11315136112586988,0.5241651802259899,3.2591983031270866,3.259062583334754,28485530
0,0,0,0,0,0,0,0,0,0,0,0,1.1449978643653231,-2.027096656214792,0.4882722125377908,-0.33756423444321565,3.2591546367591184,3.258695549809402,-0.33377627536967697,0.4886581288168584,-0.11911752451867157,0.7008318306007183,3.2593422841241697,3.25935211889173,28486525
0,0,0,0,0,0,0,0,0,0,0,0,1.8857671124657525,-2.574742147295731,1.1153826255062371,-1.846410733033506,3.2586569975205655,3.258559436626367,0.43554645008402465,-0.07674580535242621,-0.11448928290477788,1.208198441052251,3.259472889837371,3.259279735002486,28487519
0,0,0,0,0,0,0,0,0,0,0,0,0.6934132687346063,-0.6603747439831189,0.11554002947092407,-0.9969684835634808,3.259176273247751,3.2586322139063135,0.7917082299838339,-0.11897511708439792,-0.14396329450169737,0.9613933755628318,3.2592899631607484,3.2591939758293598,28488514
0,0,0,0,0,0,0,0,0,0,0,0,0.8308757818789222,-1.5962461109454762,-0.45777774545881095,-0.709819234588055,3.259311599649381,3.258666832288126,0.739060752279848,-0.2412385870502695,-0.12185513041676645,0.642956977243063,3.2597864222271946,3.2593450378590862,28489508
0,0,0,0,0,0,0,0,0,0,0,0,0.5101144445078902,-1.089189098976743,-0.21734993664621552,-1.0203984404085207,3.258411915112962,3.258666438897423,0.4278651032287005,-0.20857771737309902,-0.10166002531767193,0.7047692781411741,3.259200663471301,3.258957548017209,28490502
0,0,0,0,0,0,0,0,0,0,0,0,0.6550541347329776,-1.3653411108662021,-0.6944962733383504,-0.7161575455853396,3.2587006638885336,3.258681387744115,0.3553927010765911,-0.14425833752850742,-0.13384764597983909,0.8470024403336572,3.258931977621552,3.2591251324564374,28491497
0,0,0,0,0,0,0,0,0,0,0,0,0.48551139658825354,-1.079081318268933,-0.35999930620185205,-0.8533179346702021,3.258710892046796,3.2588332365552466,0.42948902004826306,-0.1645490365682884,-0.13751719445195132,0.9049591189574144,3.2593914579619714,3.259533865396245,28492491
0,0,0,0,0,0,0,0,0,0,0,0,0.4888815747358292,-1.465173836371164,-0.2516280355010075,-0.8561444468670424,3.258481545267289,3.2589016865374667,0.7031681779823515,-0.14294795309876837,-0.12348416131546036,1.4100479972419735,3.2593359898729313,3.2590134094969523,28493486
0,0,0,0,0,0,0,0,0,0,0,0,0.5811969973083732,-1.1580745647042472,-0.6490584670374949,-0.6977645632940009,3.259028751734346,3.2589146684306463,0.7797440385513351,-0.14068831690410577,-0.14958288068567285,0.9749865978940245,3.2591829608896923,3.259220726397124,28494480
0,0,0,0,0,0,0,0,0,0,0,0,0.8439717583622643,-1.369159754414529,-0.35376170322438516,-1.2676968178387662,3.2589752505988177,3.2585378001377343,1.0034055356270712,0.2216520573678085,-0.1472048338895838,-0.3436952285403285,3.259318680682025,3.259252984434722,28495475
0,0,0,0,0,0,0,0,0,0,0,0,-0.1422650268393787,0.4941317670502385,-0.5448406153727311,-0.9963571544119303,3.2586743067114714,3.2589292238866356,0.48557079858431795,-0.14741136400835084,-0.1340769927593461,-0.6673629364207907,3.259417815139033,3.259341497342765,28496469
0,0,0,0,0,0,0,0,0,0,0,0,0.7006721139755385,-0.7252287417922904,0.034827665666063504,-0.4667919000139117,3.2592899631607484,3.259053141957896,-0.3128238931684366,-0.32897179472110205,-0.13742789476250347,0.7043396954941386,3.259617264225157,3.2591967295642768,28497463
0,0,0,0,0,0,0,0,0,0,0,0,0.9927029481772122,-1.0729613391114878,0.27088490377484603,-0.6709742630689457,3.2588556598252842,3.2585991690873106,-0.720117416395833,-0.16379411981035708,-0.11004357457680398,-0.04353969616171075,3.2586943696372948,3.2590425204089306,28498520
0,0,0,0,0,0,0,0,0,0,0,0,1.119129671946725,-1.043484180388949,-0.09193855427963188,-0.6050553566283412,3.2584669898113,3.258672733148662,-0.2724462714727248,-0.21200336360971492,-0.1217681910715331,0.6260427506020964,3.259355659408052,3.259174306294239,28499577
0,0,0,0,0,0,0,0,0,0,0,0,0.8870000466108378,-1.0476061281688365,-0.16209545875733597,-0.564014084817658,3.2587199400329516,3.2589547942822925,0.5118009104491366,-0.13206047201877497,-0.11091532837335209,0.7876075253018767,3.25955746883839,3.259151096242797,28500634
0,0,0,0,0,0,0,0,0,0,0,0,0.853533906165827,-1.0473921236267238,-0.11299872553333347,-0.5506517828287819,3.258700270497831,3.2582022378685753,0.13653725821223953,-0.15652111250413803,-0.1135392443584495,0.13673080643782692,3.259203023815515,3.2591078232655315,28501690
0,0,0,0,0,0,0,0,0,0,0,0,0.6822791316841997,-0.9426518491091548,-0.43263732583967757,-0.7278325948515647,3.258550388640211,3.2588253687411983,0.3298030292753016,-0.21013869168027538,-0.09941061728127208,0.6771036836032489,3.2592262338669578,3.259417815139033,28502747
0,0,0,0,0,0,0,0,0,0,0,0,1.1247347026747112,-1.0368394180344842,-0.3790047978168485,-0.3987895964133258,3.258730561581917,3.258434731773702,0.8781853411418605,-0.1718598093819391,-0.12119423403671192,0.9849031907204616,3.259324188151859,3.2591908287037406,28503804
0,0,0,0,0,0,0,0,0,0,0,0,1.3681487403093266,-1.7628447130733387,0.14542552774256798,-0.9321577587315748,3.258957548017209,3.2586160848875148,0.8165056129104629,-0.01195907735336749,-0.13273710402692604,0.7037732128826633,3.2591597508382497,3.2591337870518906,28504861
0,0,0,0,0,0,0,0,0,0,0,0,0.5121537819092014,-0.3938977830288151,0.1712295974766728,-2.308544100349438,3.2589807580686516,3.2586912225116755,1.9243595271539122,0.006563330479065236,-0.16330080786953063,2.9396088766585438,3.2596636843280415,3.259441418581178,28505917
0,0,0,0,0,0,0,0,0,0,0,0,1.3851951462263041,-1.183844409447242,0.35429750136107224,-1.5065711267675312,3.2588501523554507,3.258644409018088,1.6261339695613346,-0.3538159911413182,-0.1446867400034356,0.5931265703590597,3.259114510907472,3.259107429874829,28506974
0,0,0,0,0,0,0,0,0,0,0,0,0.9584205220246936,-1.1122036352400344,-0.1631206349278253,-0.34870781287048014,3.2591278861913544,3.2583096335303345,0.6443802648043948,-0.15042709713305202,-0.13608289195095202,0.9583044717674817,3.2590244244366193,3.258917028774861,28508031
0,0,0,0,0,0,0,0,0,0,0,0,0.7472617682530603,-1.0817807652688938,0.2643373089238773,-1.0742512672247013,3.2585437009982705,3.258700270497831,0.8309485591588687,-0.10470290240083961,-0.14504944623106078,1.194194912218441,3.259087760339708,3.2593643140035047,28509088
0,0,0,0,0,0,0,0,0,0,0,0,0.6449180298945939,-0.8960169549008553,-0.4861290199910426,-0.5480467495974004,3.2588635276393325,3.258797438001327,1.0708389962719675,-0.15696957790488933,-0.12177212497855723,0.5693846546870058,3.2592887829886417,3.2594630550698107,28510144
0,0,0,0,0,0,0,0,0,0,0,0,1.058970398780155,-1.2495150863546236,-0.38646348553460663,-0.9164315720118966,3.2592990111469042,3.259020490529595,0.5287761126489774,-0.2106284631047801,-0.1421190788887833,0.6052036649231511,3.2595322918334353,3.259353299063837,28511201
0,0,0,0,0,0,0,0,0,0,0,0,0.6493668853481871,-1.503707635844664,-0.1474684056602008,-0.6129955545658534,3.2587486575542277,3.2585161636491016,0.5482721624698833,-0.013304473555621333,-0.12726110544933145,0.36538089101086746,3.2594363045020467,3.2591337870518906,28512258
0,0,0,0,0,0,0,0,0,0,0,0,0.6418161442060641,-1.4393587516973914,-0.7843160252947837,-0.9192521833482007,3.2590861867768988,3.258843071322807,0.1865226610329939,-0.15637477116284026,-0.12908722508993448,0.506929159990449,3.25908972729322,3.2591129373446623,28513315
0,0,0,0,0,0,0,0,0,0,0,0,0.32859453303748765,-1.4669055422431876,-0.4754378408715535,-0.6634105400336432,3.259088153730411,3.258727414456297,0.48810777522418203,-0.1530592743229001,-0.13928823939421647,0.336365572972962,3.2598371696278057,3.2592565249510432,28514371
0,0,0,0,0,0,0,0,0,0,0,0,0.4917659153659243,-1.1702279770646067,-0.020589282582912753,-0.8488183318159975,3.258568878003225,3.258554715937938,0.33168894430267143,-0.058109314216293596,-0.10074735888807283,1.0136883751974552,3.2591758798570485,3.2592089246760514,28515428
0,0,0,0,0,0,0,0,0,0,0,0,0.775140187160991,0.21115285291109714,-1.6714698876702652,1.1930505386651205,3.258818287708555,3.258727414456297,1.3711137260334165,-0.3872404321718731,-0.11811083771119567,1.0193398260283262,3.2590197037481907,3.259156997103333,28516485
0,0,0,0,0,0,0,0,0,0,0,0,0.48723641481833635,-0.8536389414833714,-0.2084514389576243,-0.31397062706597173,3.2589457462961366,3.258847005229831,-0.2288754974455234,-0.36461495931326854,-0.13415409733701913,0.04427258304030693,3.259346218031194,3.259403653073746,28517541
0,0,0,0,0,0,0,0,0,0,0,0,1.2095658671338398,-0.9220484044609552,0.0036400441694312293,-0.5479346332472126,3.258729774800512,3.2583281228933476,-0.5097828161457558,-0.18568552561825818,-0.1331434766225191,0.18806317902364478,3.2592624258115794,3.259186501406014,28518598
0,0,0,0,0,0,0,0,0,0,0,0,1.163146551030463,-0.6746021121266021,0.058407504368722954,-0.5221038129453436,3.2589512537659706,3.2589827250221637,-0.03517857017261627,-0.16596799683189353,-0.13815566756196826,0.17740465133245603,3.2589433859519223,3.2588072727688875,28519655
0,0,0,0,0,0,0,0,0,0,0,0,1.1831984619138791,-0.8255091459165985,0.11954868072851665,-0.6156190771602484,3.2588922451606086,3.2589205692911825,-0.2503062427408984,-0.15704117501272857,-0.15469853337985676,0.27090811382628843,3.259171552559322,3.259736461607988,28520711
0,0,0,0,0,0,0,0,0,0,0,0,0.844904881108389,-0.9149929422131707,0.15643574672171434,-0.8545653765875549,3.2589508603752684,3.2588788698767264,-0.07615217878248438,-0.18964696999156117,-0.13509430111578716,0.5227375653669316,3.259201843643408,3.2591609310103573,28521768
0,0,0,0,0,0,0,0,0,0,0,0,0.9752859682185611,-0.7432216457392747,0.1129346028488401,-0.7427814415432741,3.258868641718464,3.2589032601002765,0.6935816399552392,-0.1934833161214967,-0.14278115544094508,0.6901060330994169,3.2594811510421215,3.258981151459354,28522824
0,0,0,0,0,0,0,0,0,0,0,0,1.0131718532051865,-0.9202667379697249,-0.360871846779805,-0.8201405430007628,3.258815533973638,3.2587187598608445,0.789227508214415,-0.12984725592699717,-0.1540750091165315,0.749248391300248,3.2589854787570807,3.2591534565870113,28523881
0,0,0,0,0,0,0,0,0,0,0,0,0.855101174724242,-1.0874215945507997,-0.1840840320687332,-0.8789319966950412,3.2589256833703137,3.2587447236472036,0.7821700790131185,-0.15872488721905795,-0.14479177532098,1.5326631584958026,3.2593202542448347,3.2590098689806304,28524938
0,0,0,0,0,0,0,0,0,0,0,0,0.9133395210909272,-0.9725825873115762,-0.3285807643629032,0.13157227415707995,3.258557863063557,3.258826548913306,1.098298454081828,-0.16380002067089328,-0.14082875738486733,1.5205671811779953,3.259524030628685,3.259234101681006,28525994
0,0,0,0,0,0,0,0,0,0,0,0,3.076015922548285,-3.141449384862111,1.689066647179919,-1.1031249646097379,3.259010655762035,3.2589414189984103,0.41956337923567044,-0.362150759953351,0.03191264056118018,0.12738502352059167,3.2594532203022504,3.259415061404116,28527051
0,0,0,0,0,0,0,0,0,0,0,0,0.573574659058411,-0.7350902599203896,-0.5524051251894385,-0.9526317778386805,3.2588359902901636,3.2588253687411983,0.8756703943813317,-0.07500741183846138,-0.14662812311984574,0.8510240734844295,3.2595739912478914,3.2594343375485346,28528108
0,0,0,0,0,0,0,0,0,0,0,0,1.083445201330805,-1.5825805047250394,-0.3393620299532449,-0.8776534769121976,3.2586031029943348,3.2585972021337986,0.5151034253958972,-0.26221299913084495,-0.12150973338004747,0.6149691957198614,3.259797437166862,3.259370214864041,28529164
0,0,0,0,0,0,0,0,0,0,0,0,0.5412859369857236,-1.2806460595901084,-0.25812606312347214,-0.9376026794436787,3.259033079032073,3.2590322922506676,0.3967821236589102,-0.17401480364975971,-0.1116785063360341,0.46891817676045616,3.2592592786859607,3.2592746209233545,28530221
0,0,0,0,0,0,0,0,0,0,0,0,0.5366258307249344,-1.3792081331262747,-0.01787803386187957,-0.9343953650469023,3.2589256833703137,3.2587455104286085,0.8000540137355343,-0.1719778265926631,-0.14101404440570406,0.8625460937674156,3.259414668013414,3.2595122289076124,28531277
0,0,0,0,0,0,0,0,0,0,0,0,0.5267532976571676,-1.3390036033396249,-0.5923555245823293,-0.918739595262956,3.258824188569091,3.2585429142168656,0.8184198520684066,-0.18167569418855836,-0.11712657417375733,0.7996614098145258,3.2594815444328242,3.259504361093564,28532334
0,0,0,0,0,0,0,0,0,0,0,0,0.22498210966373797,-1.2666075189837835,-0.4149992603062701,-0.9777505609691811,3.258875329360405,3.258701450669938,0.46178128263727214,-0.15802307820595243,-0.11504081666956147,0.395038616065814,3.25888595090937,3.258939452044898,28533391
0,0,0,0,0,0,0,0,0,0,0,0,0.6682586870501861,-1.3055315620340777,-0.4371687933407775,-0.8568218656565982,3.258616478278217,3.258666832288126,0.058378393456744365,-0.11243893056379921,-0.1425376465961512,0.6076403269338997,3.259193189047955,3.2594449590974994,28534448
0,0,0,0,0,0,0,0,0,0,0,0,0.7468416269828828,-0.9814295508181513,-0.6130242720871296,-0.802020573856899,3.258738429395965,3.258614511324705,0.02529934946290844,-0.25782354567331617,-0.1267992647646981,0.3387062476523217,3.2595456671173175,3.2593273352774776,28535504
0,0,0,0,0,0,0,0,0,0,0,0,0.9545770948621147,-1.6417020132186428,0.0009252549320763267,-0.04382372424885324,3.259060222990539,3.259199089908491,-0.3888482199726367,0.03744922130694643,-0.1316887178049943,0.005696690761648507,3.2590197037481907,3.2589957069153437,28536561
0,0,0,0,0,0,0,0,0,0,0,0,1.2796617960526697,-1.6989655374247477,0.7793498610675168,-1.5052265173466821,3.258924109807504,3.258745903819311,-1.9314350523275199,0.40858069760569304,-0.10660966713543739,0.3246637731389729,3.2593033384446306,3.259407193590068,28537618
0,0,0,0,0,0,0,0,0,0,0,0,0.7125430718115654,-0.9027836683730683,-0.2965595479678569,-0.9189685486517607,3.2591479491171773,3.2587045977955578,0.13398218560006445,-0.0727627244904905,-0.1102701676213941,0.38220896508800567,3.2593898843991616,3.2594878386840627,28538674
0,0,0,0,0,0,0,0,0,0,0,0,0.8363222761538357,-1.1046595817398526,-0.21380863354309004,-0.7893876182302973,3.259038979892609,3.258813960410828,-0.08610811067916282,-0.33273300322687666,-0.15282363329215445,0.597567951389307,3.259523637237982,3.2591707657779176,28539731
0,0,0,0,0,0,0,0,0,0,0,0,0.950048774486634,-1.1222705033147935,-0.09597513627709582,-0.5324059286601458,3.2586172650596215,3.258738429395965,-0.10686655126411333,-0.14160491724072902,-0.131755987615107,0.8274359735770194,3.2592388223694346,3.2591802071547753,28540788
0,0,0,0,0,0,0,0,0,0,0,0,0.9675003728270974,-1.0971202489280998,-0.41075064072020534,-0.7266178043625121,3.2591211985494133,3.258920962681885,0.23968351360362927,-0.19469377931282272,-0.12883112774266334,0.32374992653726653,3.259151489633499,3.2591644715266788,28541844
0,0,0,0,0,0,0,0,0,0,0,0,1.2907805908656824,-1.2207460308964289,-0.21027795198892973,-0.6809860564453668,3.2588025520804584,3.2587466906007156,0.444355648083168,-0.1196529292646562,-0.12446488433657697,0.5445270829829076,3.259069664367397,3.2590027879479866,28542901
0,0,0,0,0,0,0,0,0,0,0,0,0.569829186180733,-0.9632450655990917,-0.4971286174212238,-0.7258180410645056,3.2588851641279653,3.258496494113981,0.5082029590848635,-0.1941977136370794,-0.14676187595866633,0.9025350454491431,3.259252197653317,3.2591892551409307,28543958
0,0,0,0,0,0,0,0,0,0,0,0,0.574429103664053,-1.0509995163678547,-0.5194020056011683,-0.7242885380135223,3.258948500031054,3.259108610046936,1.1601091814171292,-0.15296682750783294,-0.13460413630058005,0.8392671989521024,3.2591432284287487,3.2591538499777135,28545014
0,0,0,0,0,0,0,0,0,0,0,0,0.902914667476972,-1.1072185882590517,-0.384819505789221,-0.5104960334892312,3.258789570187279,3.2583698223078037,0.5535310093797456,-0.174211105610264,-0.11188818358042045,0.5259928734294025,3.2594764303536925,3.2593745421617673,28546071
0,0,0,0,0,0,0,0,0,0,0,0,0.02739926903239119,-0.5896497833311299,0.7353184265277894,-1.9894605743241993,3.2587777684662065,3.258871002062678,0.49160895247566133,0.48509440244369534,-0.12141335265795619,0.7742271273406895,3.2594020795109366,3.2590338658134774,28547128
0,0,0,0,0,0,0,0,0,0,0,0,-0.7308916009535313,-0.15708798850631575,-0.8005677819928863,-1.023038485412417,3.2591625045731667,3.258900899756062,0.6239530591908764,-0.07308963216419603,-0.1425388267682584,0.6635191158675093,3.259286422644427,3.2591943692200624,28548184
0,0,0,0,0,0,0,0,0,0,0,0,0.7325961628670886,-1.6307433284215125,-0.06264786275003703,-0.5885951028579596,3.258584220240619,3.2584500740110958,0.5258300096786034,-0.1107367289944564,-0.11449951106304061,0.4908693779551241,3.259403653073746,3.259210104848159,28549179
0,0,0,0,0,0,0,0,0,0,0,0,0.44050671345075526,-1.1729840723257152,-0.39328291336094295,-1.0348893803226207,3.2588867376907746,3.258497674286088,0.5569310852207047,-0.24061899669396838,-0.10417536546890323,0.7201500678241333,3.2592423628857565,3.2588108132852094,28550174
0,0,0,0,0,0,0,0,0,0,0,0,0.6642433481506523,-1.487515281142626,-0.8546814268447669,-0.7209982181785366,3.2586467693623025,3.259110183609746,0.8389591740321128,-0.1906198251986295,-0.1048110848440033,0.8846920233597783,3.25894299256122,3.2588576267787963,28551169
0,0,0,0,0,0,0,0,0,0,0,0,0.3139312879957304,-1.5706835831026533,-0.9097671401223111,-1.1492024241927177,3.258666832288126,3.258560616798474,1.1233778981420872,-0.17695618593170473,-0.12334136049048429,0.7863817198731564,3.259165651698786,3.2596058558947867,28552163
0,0,0,0,0,0,0,0,0,0,0,0,0.4374024674180111,-1.3401184725902644,-0.7484238443879896,-0.7841433267764242,3.258793504094303,3.2586947630279974,0.8043592815827466,-0.24897697555744355,-0.12575599262189777,0.7584643552856868,3.259081072697767,3.2590279649529412,28553158
0,0,0,0,0,0,0,0,0,0,0,0,0.5663173873802885,-1.1204750681489788,-0.6865725978103395,-0.5938551299399292,3.2587710808242654,3.25857792598938,0.5169857999069453,-0.13357463283236418,-0.12104985964892621,0.6797252392441319,3.2588371704622707,3.259143621819451,28554153
0,0,0,0,0,0,0,0,0,0,0,0,0.865827365616246,-1.696821164705892,0.158797271108302,-1.2537869159921307,3.2589237164168017,3.2588131736294237,0.39255396038937096,-0.14197824501731932,-0.13892081247816232,0.6983353732032028,3.2592887829886417,3.2595094751726954,28555147
0,0,0,0,0,0,0,0,0,0,0,0,0.7660874803170538,-0.7470497306644595,-0.6756453842694025,-0.932956341857474,3.259236068634518,3.2590614031626464,0.47246026664498647,0.2718392696189009,-0.15169656892974004,1.3823985317228473,3.259427256515891,3.2588281224761153,28556142
0,0,0,0,0,0,0,0,0,0,0,0,2.5637366490050133,-1.6904631841734865,-0.10235750703305088,-1.1047244912057508,3.258622379138753,3.2586113641990853,0.7746901481974301,-0.3537345592659186,-0.14873000964284055,1.1319483079848656,3.2593591999243734,3.2592089246760514,28557137
0,0,0,0,0,0,0,0,0,0,0,0,0.8268580826351741,-0.26914887060509574,-0.21644159751434297,-0.2618526532474343,3.259208531285349,3.2585275719794717,0.12627330139557139,-0.253992313622512,-0.12007857800466752,0.7442790799473619,3.259198696517789,3.2591927956572526,28558131
0,0,0,0,0,0,0,0,0,0,0,0,1.2261370570823023,-1.0951997155189175,0.24168351193469906,-0.5821360209150339,3.2587718676056703,3.25874905094493,0.10077961692567074,-0.17744281023059014,-0.15337241332202114,0.127388170646211,3.2593202542448347,3.2590413402368235,28559126
0,0,0,0,0,0,0,0,0,0,0,0,0.7388203905606735,-0.7466284092221748,0.16525595966052525,-0.5329492012201786,3.2587962578292196,3.2587482641635255,0.16140781180951735,-0.17785272334250488,-0.16955296630298688,0.5605679822645167,3.259140868084534,3.2591625045731667,28560121
0,0,0,0,0,0,0,0,0,0,0,0,1.1996260642559604,-0.8649402695823037,0.13000461220796253,-0.537090818535187,3.259317107119215,3.258990592836212,0.27322636523561067,-0.2737967817541101,-0.13353647393423007,0.33931206933403835,3.2589673827847694,3.2592695068442232,28561115
0,0,0,0,0,0,0,0,0,0,0,0,0.8648466425951293,-0.8830728272286447,0.1152209896112668,-0.6867287739191977,3.2588296960389247,3.2586569975205655,-0.07995508670271476,-0.20175002834201197,-0.1566222139146583,0.4327183643243747,3.2594429921439874,3.2592053841597295,28562110
0,0,0,0,0,0,0,0,0,0,0,0,1.1319546022361042,-0.9878072008856774,0.16535784785245036,-0.4537242476611433,3.258618051841027,3.2588977526304426,0.35030065182455206,-0.16135627762750118,-0.13784056160933514,0.7671134432689479,3.2594772171350974,3.2591625045731667,28563105
0,0,0,0,0,0,0,0,0,0,0,0,0.9706793630933002,-0.7588073919781914,-0.01680211029077891,-0.7475398954796666,3.258985085366378,3.2589544008915903,0.5011707068885215,-0.2481858668548902,-0.12222767141195194,0.6880049333578269,3.2589508603752684,3.2590983818886734,28564099
0,0,0,0,0,0,0,0,0,0,0,0,0.89548469728049,-0.8387754605740857,-0.24175943634026484,-0.27829756478042184,3.2585523555937232,3.2585940550081793,0.5681427202394868,-0.06352591079782377,-0.1399349737089841,0.6994301795280193,3.2593993257760197,3.2590157698411666,28565156
0,0,0,0,0,0,0,0,0,0,0,0,0.6802708721483793,-0.16451520496788083,-0.9397167610784484,0.4315704502547324,3.2586589644740775,3.2589547942822925,1.9886462555702036,-0.1429345778148863,-0.12216000821113683,1.7225103643548922,3.259195156001467,3.25906848419529,28566213
0,0,0,0,0,0,0,0,0,0,0,0,2.4935624353364028,-1.4421632340148967,0.35094856631142685,-0.600431442312174,3.258843858104212,3.2590362261576917,2.0706099951994412,-0.3773321005501867,-0.11029770497056304,1.0631513551654048,3.258902866709574,3.2590393732833114,28567270
0,0,0,0,0,0,0,0,0,0,0,0,0.48153342980544916,-0.4804091191779517,-0.8523037734393802,-1.0623515918673982,3.258765179963729,3.258583040068512,0.726879409179617,-0.15469617303564226,-0.12588148425596765,0.9091935764781923,3.259535832349757,3.259403653073746,28568326
0,0,0,0,0,0,0,0,0,0,0,0,1.0641159491677223,-1.1306005514383972,-0.900517737927167,-1.123838165263911,3.2589823316314614,3.258953614110185,0.9385818289019857,-0.05132214442755514,-0.1310431636623339,1.1092402230787541,3.2595098685633976,3.2588501523554507,28569383
0,0,0,0,0,0,0,0,0,0,0,0,0.17598490428744606,-1.2103184235475568,-0.5439877443298988,-1.2417786648009614,3.2588481854019387,3.2589327644029575,1.0366045637851433,-0.22717683639250236,-0.15044243937044613,0.9698815667488059,3.2591707657779176,3.2590271781715368,28570440
0,0,0,0,0,0,0,0,0,0,0,0,0.4710326517859282,-1.5185073874601587,-0.6221422817876674,-1.0878393754767628,3.2589453529054344,3.2587187598608445,1.0534054939038149,-0.1427846959572668,-0.13206519270720396,0.9830290774141642,3.2594854783398484,3.2592014502527054,28571497
0,0,0,0,0,0,0,0,0,0,0,0,0.4489775954458231,-0.9155236262707264,-0.7542889063702709,-1.031961373324558,3.2589044402723832,3.2589532207194827,0.903412306715525,-0.08145862596733879,-0.1394507097543132,0.8142349617761327,3.2594898056375747,3.259107429874829,28572553
0,0,0,0,0,0,0,0,0,0,0,0,0.3431468419011643,-1.2833695034229162,-0.5056050068861254,-0.82080025920871,3.2585696647846296,3.2585102627885654,1.101314187206529,-0.13014190556310481,-0.14278823647358851,0.9414925267091425,3.2591699789965123,3.2592167924900997,28573610
0,0,0,0,0,0,0,0,0,0,0,0,0.716915216078188,-1.2811964131827847,-0.5119169607063485,-0.7656535703722918,3.2588473986205333,3.259016163231869,0.183585212658073,-0.0425518921079507,-0.11509431780508969,0.5453189784668658,3.2592498373091026,3.2593942116968884,28574667
0,0,0,0,0,0,0,0,0,0,0,0,0.8568726130572095,-1.0940698974215863,-0.4220271852048856,-1.1315600313615837,3.2589768241616275,3.2588005851269464,0.0221431758574457,-0.14954826230386045,-0.13783505413950134,1.6071811923004615,3.2593973588225076,3.2590637635068607,28575724
0,0,0,0,0,0,0,0,0,0,0,0,1.4393894361721795,-1.9944975488779007,1.489093171250006,-1.537492029367927,3.2589807580686516,3.2586121509804906,1.6454242760448785,-0.33210869218214656,0.4252246648341017,-0.5052147633093312,3.2594744634001804,3.2592954706305823,28576780
0,0,0,0,0,0,0,0,0,0,0,0,2.039363365097447,-1.1279577526995839,0.18327325383105916,-0.8761967511411608,3.2589146684306463,3.2588721822347857,0.19566152044075968,-0.10316592492651043,-0.10828118422999193,0.29411501814305996,3.2590649436789683,3.259162111182464,28577837
0,0,0,0,0,0,0,0,0,0,0,0,1.0668181499026,-0.8647479015288235,-0.18774217221047546,-0.68787668798884,3.258990592836212,3.258854086262475,-0.09517222585347006,-0.21959029669645985,-0.14567100354087395,0.4595098447215372,3.2594815444328242,3.259362740440695,28578894
0,0,0,0,0,0,0,0,0,0,0,0,1.3806160784502122,-1.1899124610319687,0.019977560040659908,-0.692807840443592,3.2585818598964043,3.2587997983455415,-0.3344485800801015,-0.2419498374402329,-0.11926347246926694,0.39939187757872074,3.2595118355169097,3.25933913699855,28579951
0,0,0,0,0,0,0,0,0,0,0,0,0.9097816955783004,-0.8816857316119351,-0.16510293067728646,-0.7762857408864189,3.2593572329708613,3.258993346571129,-0.057499165236850405,-0.1724994626640633,-0.09497435033015612,0.3432318142928856,3.259022064092405,3.2589803646779494,28581007
0,0,0,0,0,0,0,0,0,0,0,0,0.8639768557520933,-1.1683200321579017,-0.27377396509337004,-0.3867703302824891,3.2591628979638694,3.2587427566936915,0.17752896279441865,-0.24997422098806155,-0.11313090480934439,0.5445211821223714,3.259334022919419,3.2592384289787324,28582064
0,0,0,0,0,0,0,0,0,0,0,0,0.9478603420091083,-0.941022031429056,-0.23669531782809708,-0.513720657076914,3.258436698727214,3.2584186027549027,0.09588977049467212,-0.1712370719000187,-0.13579335639397577,0.15603055429822854,3.2592702936256277,3.25934071056136,28583121
0,0,0,0,0,0,0,0,0,0,0,0,0.8918560614414288,-1.0908987749694317,-0.2952900761711688,-0.5532060686595521,3.2587498377263353,3.2588186810992577,0.978943714969601,-0.20648133831993795,-0.13998218059327372,0.6741099803578829,3.258999640822368,3.2589795778965445,28584178
0,0,0,0,0,0,0,0,0,0,0,0,0.8339241664319237,-0.6743861406309772,-0.7592346142810124,-0.5324523487630306,3.258586973975536,3.2588957856769305,1.1559687442742281,-0.19229921010723233,-0.11477095064770586,0.6728267398866105,3.2592116784109684,3.259313566602893,28585235
0,0,0,0,0,0,0,0,0,0,0,0,1.0904330003777742,-0.7898541796033597,-0.07055186874292717,-0.9816769935699694,3.258808059550292,3.258609003854871,1.171016332032243,-0.32985731719223466,-0.13261633308128512,1.022466495331108,3.259413881232009,3.2593847703200303,28586292
0,0,0,0,0,0,0,0,0,0,0,0,0.6956068152912634,-1.4029587033937816,0.46220221068885453,-1.806835234980015,3.2587160061259275,3.258649129706517,1.2555496997296451,-0.3673793157791275,0.21538770382257744,-0.3657719213690664,3.259437091283451,3.259018523576083,28587348
0,0,0,0,0,0,0,0,0,0,0,0,0.6086442600064588,-1.0405726958003874,-0.7840390782402846,-0.2948152535933558,3.258814353801531,3.2589748572081154,0.14583583424518518,-0.06692519985737798,-0.13053254253060131,0.661095042359238,3.259553928322068,3.2592400025415422,28588405
0,0,0,0,0,0,0,0,0,0,0,0,1.034420458605344,-1.2739820210912254,-0.19758244724064436,-0.5843523841324311,3.2591168712516865,3.2587958644385173,0.8981235621122792,-0.1986693857514126,-0.1254168898364174,0.6594140838878254,3.2593922447433763,3.259232528118196,28589462
0,0,0,0,0,0,0,0,0,0,0,0,0.5399539160673519,-1.1741237251906067,-0.5621214821483472,-0.8461617644025998,3.258729774800512,3.2586192320131335,0.727714971031543,-0.16752975792047473,-0.14660924036612993,1.0075821647145944,3.259136147396105,3.2589886258827,28590519
0,0,0,0,0,0,0,0,0,0,0,0,0.5012021781447146,-0.9462383921430578,-0.4404213476683315,-1.2276169929047815,3.2585452745610803,3.2583828042009833,0.7135804430938295,-0.12260847361188812,-0.13890743719428028,0.4525818410613347,3.2595134090797195,3.2593336295287165,28591576
0,0,0,0,0,0,0,0,0,0,0,0,0.6737519948186868,-1.5623614027930977,-1.1182111046565897,-0.31843246441274453,3.2591243456750325,3.2589437793426246,0.6022422197153829,-0.23362844391208218,-0.11957700485909042,0.5901297199880743,3.25912552584714,3.2591837476710968,28592632
0,0,0,0,0,0,0,0,0,0,0,0,0.6529518548192805,-1.2823313453592473,-0.7140273349317711,-0.8847856503469527,3.2590433071903355,3.259007508636416,0.6159444112711443,-0.06654007035971526,-0.1247323900142181,0.6246171026965501,3.2593568395801586,3.2588918517699064,28593689
0,0,0,0,0,0,0,0,0,0,0,0,0.28198363566203544,-1.1032162312526979,-0.7144588845323186,-0.7476425704529964,3.2587561319775737,3.2587616394474077,0.2667334516922774,-0.19557458109552633,-0.12583545754378528,0.4746093600522709,3.2593957852596978,3.259324188151859,28594746
0,0,0,0,0,0,0,0,0,0,0,0,0.40343986790655467,-1.6038051132923499,-0.3779627058461553,-0.918358006281615,3.2590338658134774,3.2590975951072685,0.5075487503467501,-0.11642358498854458,-0.08306247986107824,0.8825995782136414,3.259199876689896,3.2588576267787963,28595803
0,0,0,0,0,0,0,0,0,0,0,0,0.38393831061581496,-0.6426576069185265,0.10546332662860472,-1.8497931062928563,3.2588462184484266,3.259060222990539,-0.24183064005740165,-0.2027397993492841,-0.03698856079442034,-0.4560841984849212,3.2592584919045553,3.259332055965907,28596860
0,0,0,0,0,0,0,0,0,0,0,0,2.3036334042112117,-2.833103064668544,0.9553961343045394,-1.1546571796723817,3.259033079032073,3.258554715937938,-1.2292967712040868,0.05554755396217751,-0.11756087750922173,0.29418543507879197,3.2594913792003846,3.2593395303892527,28597916
0,0,0,0,0,0,0,0,0,0,0,0,0.886498866855963,-0.982915780891869,-0.3403561282582436,-0.7333589474390683,3.2588627408579276,3.2588127802387215,0.008826900580751964,-0.30477354583424876,-0.12359863800986265,0.9552572673865876,3.259053141957896,3.2588320563831394,28598911
0,0,0,0,0,0,0,0,0,0,0,0,1.180802319145479,-0.9715220059778698,-0.04123914733399717,-0.6271245750337332,3.25856809122182,3.2586857150418416,0.0025751355379981444,-0.1710580791304206,-0.12685158572811908,0.10123280301485096,3.2594008993388295,3.259085793386196,28599906
0,0,0,0,0,0,0,0,0,0,0,0,1.0782170388957308,-0.9059386618064238,-0.4321491279779825,-0.5978488323508301,3.2586971233722117,3.258555896110045,0.21836095075141795,-0.2257024080398569,-0.13075402149606005,0.5570557900733697,3.2590397666740136,3.259611756755323,28600901
0,0,0,0,0,0,0,0,0,0,0,0,0.8681062779553267,-0.6567638107256664,-0.4041133527890864,-0.4394599007916332,3.25870499118626,3.258846611839129,-0.08953178996226668,-0.17282086286793502,-0.1316533126417771,0.14914464344318432,3.2591188382051985,3.259127492800652,28601896
0,0,0,0,0,0,0,0,0,0,0,0,1.3077164539952817,-1.2972467538412515,0.020430746129840152,-0.2752570480414686,3.2587521980705496,3.2587203334236543,0.5094094883691654,-0.17632636741714086,-0.13525519791307425,0.7786393974589583,3.2593253683239656,3.259119624986604,28602891
0,0,0,0,0,0,0,0,0,0,0,0,1.091628908113111,-0.9584488461552674,-0.3752829283813153,-0.4831010917545666,3.2588340233366515,3.258701057279236,0.8004891038524036,-0.08526900831091502,-0.1279723558392949,1.0455400401997614,3.2590747784465286,3.2591156910795798,28603886
0,0,0,0,0,0,0,0,0,0,0,0,0.985076676020226,-0.8040764336677114,-0.38185845397215534,-0.4336341778795931,3.2587604592753,3.2588088463316973,1.0463984187124273,-0.2967263456256801,-0.10719463910992612,0.22315048255330117,3.259269113453521,3.2592384289787324,28604881
0,0,0,0,0,0,0,0,0,0,0,0,0.5153756517619671,-1.3120441451125318,-0.10686458431060127,-1.0112222088840257,3.259024817827322,3.258540553872651,0.869415875603661,-0.09356876535043303,-0.14093064557679244,0.3479772863360984,3.25974983689187,3.2596483420906472,28605876
0,0,0,0,0,0,0,0,0,0,0,0,0.24804936028115274,0.3512467564638563,-1.695709835971574,0.002101099741589992,3.2591719459500244,3.258950466984566,2.4930085412274052,-0.17621975853678684,-0.11959234709648454,0.4523170891186105,3.2589772175523297,3.25905707586492,28606871
0,0,0,0,0,0,0,0,0,0,0,0,1.869943364851876,-1.396459888989912,-0.4784335110704316,-0.9761742444246106,3.2586448024087904,3.258402473736104,0.1925600281429324,-0.02046693807446218,-0.12667023261430652,0.8956286782775734,3.2594087671528778,3.258996493696748,28607866
0,0,0,0,0,0,0,0,0,0,0,0,0.6926740876047714,-1.0838976006385803,-0.8127184406183291,-1.0670258601934743,3.2587577055403836,3.2588422845414025,0.824441876940951,-0.12718518104376567,-0.13539681856594307,0.8234898714411105,3.25939775221321,3.259200663471301,28608861
0,0,0,0,0,0,0,0,0,0,0,0,0.553865391476797,-1.343129878417239,-0.6502020538094108,-0.8230862525804343,3.259092087637435,3.25874905094493,0.7862007601500463,-0.1846178632519082,-0.09064390547798937,1.271336468617495,3.2592112850202657,3.259262032420877,28609856
0,0,0,0,0,0,0,0,0,0,0,0,0.4134976879951581,-1.029803231931118,-0.14795030927065722,-0.7506028354886574,3.259035045985585,3.2586302469528015,1.3303112423790981,-0.25444746666520435,-0.13903568256326707,1.1336485426006964,3.2596180510065613,3.259381229803709,28610851
0,0,0,0,0,0,0,0,0,0,0,0,0.3565410085369359,-1.309663737972228,-0.583777640316205,-1.1595100473773536,3.2588422845414025,3.2587462972100134,0.8513379992649553,-0.17341488282857925,-0.12387912558068341,0.8802781796786998,3.2594913792003846,3.2593049120074404,28611846
0,0,0,0,0,0,0,0,0,0,0,0,0.407476843294721,-1.4091081868539077,-0.5439708285296951,-0.8397475289997492,3.258992559789724,3.2589012931467645,0.8531279269609363,-0.2398357558054633,-0.11508251608401729,0.9228749183267257,3.2591239522843303,3.2592372488066252,28612841
0,0,0,0,0,0,0,0,0,0,0,0,0.4952214592959236,-1.4519142093556177,-0.7985740779130551,-0.5767729254690319,3.2591270994099495,3.2586743067114714,0.6557948894256221,-0.1970761534066383,-0.14087163697143043,0.4988658307630814,3.2594772171350974,3.259465415414025,28613836
0,0,0,0,0,0,0,0,0,0,0,0,0.6995576381156012,-1.2962211842800597,-0.7096339475672182,-1.1182508371175333,3.258649129706517,3.2585476349052946,0.42962001915216674,-0.23673859080536255,-0.1319440283708606,0.593008946539038,3.2590720247116116,3.2594516467394405,28614893
0,0,0,0,0,0,0,0,0,0,0,0,0.45675374946042885,-1.2283758435697367,-1.2062255866796479,-0.08745035975579735,3.2588961790676327,3.258965022440555,0.2534502212345864,0.18787671183070084,-0.15336533228937774,1.1218464281375917,3.2589803646779494,3.259090120683923,28615949
0,0,0,0,0,0,0,0,0,0,0,0,1.2560512728752222,-1.5798531269852074,-0.08155028600100112,-0.39159487385688707,3.2588552664345816,3.2587415765215844,1.6026092055570131,0.13009155155319588,0.0053961402650046664,1.0138606803251122,3.2591884683595262,3.25953465217765,28617006
0,0,0,0,0,0,0,0,0,0,0,0,1.295840775470826,-1.0322143235462096,-0.28256191999458313,-0.5016329409638572,3.2592813085652956,3.258566911049713,-0.36113030447129063,0.08840983967898364,-0.12167613764716835,0.07631464914258113,3.259166438480191,3.2592879962072363,28618062
0,0,0,0,0,0,0,0,0,0,0,0,0.9733776299211537,-0.9182572982617971,-0.314425780108664,-0.3206681037745599,3.258799404954839,3.258856053215987,0.34889113293780477,-0.08447239213852788,-0.132530573908159,0.13143183367631836,3.259466595586132,3.259257705123151,28619119
0,0,0,0,0,0,0,0,0,0,0,0,1.0297119652881581,-0.7740611164642711,-0.4458544666593631,-0.7448341542284672,3.2586172650596215,3.2586967299815095,-0.6714077796230054,-0.1776182624838665,-0.13825794914459574,-0.39693829976776834,3.2591156910795798,3.2592474769648883,28620175
0,0,0,0,0,0,0,0,0,0,0,0,0.7053625113204134,-0.7412019778730843,-0.30322634020165684,-0.6290608440710119,3.259244723229971,3.258849758964748,-0.2443353586596678,-0.2116823567965456,-0.10707937563411898,-0.19496049820905903,3.259403259683044,3.2591872881874187,28621232
0,0,0,0,0,0,0,0,0,0,0,0,0.9678009233237413,-0.5928622118070378,-0.2505737484185395,-0.7852707845295411,3.2588997195839546,3.2590047549014987,-0.5839452247554332,-0.10463877971634623,-0.14294323241033938,0.23070791133736507,3.2595995616435482,3.259345431249789,28622288
0,0,0,0,0,0,0,0,0,0,0,0,0.4060055620676949,-0.7389903353441162,-0.30723813858486876,-0.8272148880022631,3.2585523555937232,3.258585007022024,0.2533534471217927,-0.22965637798981403,-0.15375950977319594,0.728253522903147,3.259008688808523,3.259170372387215,28623344
0,0,0,0,0,0,0,0,0,0,0,0,0.5774947974079605,-0.9109831107834709,-0.1683731875864491,-0.8714068259485752,3.2588906715977988,3.258804125643268,0.5759959788317655,-0.22779406640458896,-0.14004512310565986,0.36960944767110915,3.258902079928169,3.258909947742217,28624401
0,0,0,0,0,0,0,0,0,0,0,0,0.9469830807427263,-0.9326349416536023,0.057588071535595836,-1.2258097560178942,3.258935124747172,3.2588584135602012,1.0157741327016512,-0.29753476351913966,-0.13329847255926996,0.3283683333835999,3.2593717884268507,3.259351725501028,28625457
0,0,0,0,0,0,0,0,0,0,0,0,1.6459801371073886,-1.325740435807757,-0.501497614562227,0.17035784368012472,3.2585437009982705,3.258620018794539,1.3977478501496134,-0.25753873080476886,-0.0977178570887872,0.9297529613677217,3.259284062300212,3.259090120683923,28626514
0,0,0,0,0,0,0,0,0,0,0,0,-0.6573385545418924,-0.9073426732233373,0.012715567674108466,-1.0214657093841684,3.258907587398003,3.2587852428895525,2.6311520136775988,-0.3555158323664465,-0.1254896671163639,0.9850778561923332,3.2592163990993974,3.259291143332856,28627570
0,0,0,0,0,0,0,0,0,0,0,0,0.7150391358183784,-1.105847621661141,0.0007073164829393009,-0.6098448884302244,3.259106643093424,3.25887296901619,0.8936444155746002,-0.14322883406029152,-0.132307914770593,0.9494209229255823,3.2596219849135855,3.2595515679778537,28628627
0,0,0,0,0,0,0,0,0,0,0,0,1.1046650892096863,-1.1987161515612783,-0.29567835279445087,-0.7815973021504047,3.258788783405874,3.2585940550081793,1.3850012046100144,-0.16946681373915837,-0.11867968066688545,0.9263493450104409,3.2592407893229467,3.2592746209233545,28629683
0,0,0,0,0,0,0,0,0,0,0,0,0.6639809565521426,-0.9184319637336688,-0.9668489178239009,-0.754118568196126,3.2590673040231826,3.2590318988599654,0.7656645853119594,-0.2066032894376861,-0.14745227664140184,0.8317664184291861,3.259350151938218,3.259001214385177,28630739
0,0,0,0,0,0,0,0,0,0,0,0,0.7259592683266721,-1.295019769074889,-0.6127666011770488,-0.7516708912457097,3.258970529910389,3.258852512699665,0.8794925784459803,-0.15510333241264013,-0.1410439420990875,1.0634247617035821,3.2593108128679766,3.2594685625396442,28631796
0,0,0,0,0,0,0,0,0,0,0,0,0.6946150773304792,-1.1150183457158023,-0.8555429524830522,-1.0147430556706256,3.258752591461252,3.2586046765571446,0.667406996179461,-0.24222835805754162,-0.11387677358112021,0.46828167060395126,3.2590759586186357,3.259354085845242,28632852
0,0,0,0,0,0,0,0,0,0,0,0,0.5978747961371894,-1.442724209156538,-1.1665509541691488,-0.7197244190841221,3.258578319380083,3.2587938974850053,0.45180843494038997,-0.2028747323602119,-0.13370563193626783,0.7993655800063109,3.2593611668778855,3.258892638551311,28633908
0,0,0,0,0,0,0,0,0,0,0,0,0.8474383172319313,-1.5058732516614497,-0.6316489615021897,-0.6987311242498307,3.258962662096341,3.259085793386196,0.6967928882590398,-0.21890186296723638,-0.15510726631966426,0.9725483623204663,3.259311599649381,3.2593509387196224,28634964
0,0,0,0,0,0,0,0,0,0,0,0,0.581193063401349,-0.522372498795092,-0.5511230648902732,-0.8615177704713071,3.2589256833703137,3.258710498656094,0.24840970616456343,0.01364633007601858,-0.13098494183837672,0.9016888620482518,3.2593155335564052,3.259144801991558,28636020
0,0,0,0,0,0,0,0,0,0,0,0,0.8672915658106286,-0.18419182112119448,-0.8277589473437008,-0.010865844591360639,3.2589119146957293,3.258383590982388,1.0941942088835488,-0.34933881155715124,-0.13288973961946246,1.119131638900237,3.2591278861913544,3.2593611668778855,28637076
0,0,0,0,0,0,0,0,0,0,0,0,0.8616353942913286,-0.47926789275025045,0.009340668838103871,-0.47954877371177357,3.2589846919756758,3.258917028774861,-0.7439702682459673,-0.17061197407388376,-0.15411670853098733,0.32869209393168614,3.259579498717725,3.259147555726475,28638132
0,0,0,0,0,0,0,0,0,0,0,0,1.1034451846415025,-0.8980051515108527,0.05105267179640195,-0.6296076571473666,3.2590252112180247,3.258902079928169,-0.10716513480724511,-0.24905644047933106,-0.12964033241752773,0.8064269431146315,3.2591507028520943,3.2591507028520943,28639188
0,0,0,0,0,0,0,0,0,0,0,0,0.967813905216921,-1.0199173235794692,-0.009214783813331582,-0.6328468361910385,3.2587541650240617,3.2584961007232787,-0.24196478628692464,-0.1908129800335145,-0.13725991693257295,0.08827293971454378,3.259016163231869,3.2591483425078795,28640245
0,0,0,0,0,0,0,0,0,0,0,0,1.0824349740070074,-0.864684565625735,-0.40210706020677806,-0.7382779047820454,3.2585476349052946,3.2587958644385173,-0.0470392998503804,-0.12975048181420348,-0.1385612533761565,0.21612531138960256,3.259674305877007,3.259319074072727,28641301
0,0,0,0,0,0,0,0,0,0,0,0,1.0780136559025832,-0.87526913586487,-0.4342982213852669,-0.9491931497088849,3.2586274932178845,3.2589197825097775,0.00860463483388839,-0.1994089602719498,-0.10757347435635023,0.39081714043821575,3.259199089908491,3.259459514553489,28642357
0,0,0,0,0,0,0,0,0,0,0,0,1.0746859639508681,-1.0163044233685046,-0.6009397030996922,-1.1809683300218974,3.2587167929073324,3.258710892046796,0.5133386747048705,-0.10906875241622356,-0.13805928683987698,0.3949445956879372,3.259381229803709,3.258950466984566,28643413
0,0,0,0,0,0,0,0,0,0,0,0,0.49823640563921995,-1.2126323476591523,-0.4934283844743233,-0.9159575362154885,3.259254951388234,3.258867068155654,0.5164102693093144,-0.11741453616792394,-0.1368389888809906,0.5593516182126543,3.259619231178669,3.2595153760332316,28644469
0,0,0,0,0,0,0,0,0,0,0,0,0.32819091417681145,-1.1957366103811993,-0.3791106199157977,-1.161618228151587,3.2588237951783885,3.2589272569331236,0.7462778981063245,-0.3231633809999681,-0.12750540107553018,0.8400067734726396,3.259176666638454,3.2591754864663462,28645525
0,0,0,0,0,0,0,0,0,0,0,0,0.8591239880471215,-0.5366698904836047,-0.31782506916821823,-1.1442681246123463,3.258871002062678,3.2588592003416057,0.7766637893514382,-0.2783420179297945,-0.1350895804273582,-0.3734721509781063,3.259323794761156,3.2591526698056064,28646581
0,0,0,0,0,0,0,0,0,0,0,0,1.4894307004726768,-0.9268937977425811,0.7371453329497972,-2.3675192675017436,3.2591377209589147,3.259028751734346,1.2022369983478782,-0.21236646322804248,-0.11789368604346347,0.5625758484096347,3.2594410251904753,3.259431190422915,28647637
0,0,0,0,0,0,0,0,0,0,0,0,1.0479987320898452,-1.495110868824824,-0.620472731646625,-0.7767251583010146,3.258738429395965,3.258843858104212,1.030755630821661,-0.0771647664504965,-0.13276464137609498,0.973240729956714,3.2589634488777453,3.2590802859163626,28648632
0,0,0,0,0,0,0,0,0,0,0,0,-0.01894018875839576,-1.0760046095853577,-0.6003948569768497,-0.8366267605575037,3.258465022857788,3.2583890984522217,0.800430488637744,-0.14718791808938003,-0.14374653622466757,1.0563004560828753,3.2593442510776818,3.258931977621552,28649627
0,0,0,0,0,0,0,0,0,0,0,0,0.6975175139328854,-1.1667504032552722,-0.4171703835928897,-0.5279287490759789,3.258586187194131,3.258519310774721,0.9777564618297173,-0.16946287983213423,-0.13248179346105973,0.9283835683326206,3.259109003437638,3.2590633701161584,28650622
0,0,0,0,0,0,0,0,0,0,0,0,0.6835962037558798,-1.1908404696989618,-0.8321739711968864,-0.7649844127874866,3.259096021544459,3.2587101052653913,1.0463626201585077,-0.15784644578056878,-0.14461907680262048,0.7361295981561657,3.259472103055966,3.259462268288406,28651617
0,0,0,0,0,0,0,0,0,0,0,0,0.1460950787180756,-1.4822666623910263,-0.5248964935417763,-1.0055841333370368,3.2587018440606403,3.258725447502785,0.742479710874523,-0.20141013877512678,-0.1356120032801632,0.33585613201333664,3.259380836413006,3.259227414039065,28652612
0,0,0,0,0,0,0,0,0,0,0,0,0.44318098344576157,-1.0318976440307668,-0.7313168563028402,-0.9297384059117324,3.259029145125049,3.258786029670957,0.37597686958037246,-0.10415136863605601,-0.139626555398292,0.5770207616115524,3.2589457462961366,3.258965022440555,28653607
0,0,0,0,0,0,0,0,0,0,0,0,0.5716497983515022,-1.0814656593162608,-0.8262731106606853,-1.065739865987285,3.258752984851954,3.2590673040231826,0.7530512992204784,-0.10633744076936731,-0.09759275884541974,0.9090960155839938,3.2592163990993974,3.259162111182464,28654602
0,0,0,0,0,0,0,0,0,0,0,0,0.7405387211488152,-1.5927327385822223,-0.512884308443583,-0.48293626105025544,3.258931977621552,3.2584182093642005,0.4978190181039593,-0.2587417195727491,-0.12054435259632498,0.8835846285324845,3.259640474276599,3.2595082950005883,28655597
0,0,0,0,0,0,0,0,0,0,0,0,0.43607674075087793,-0.22224883106336962,-1.0091714631523445,0.315956856722457,3.2588828037837505,3.2587045977955578,-0.3804737186996601,-0.30759022326352875,-0.04980798361396594,-0.8187235496906697,3.2590956281537564,3.2592777680489737,28656592
0,0,0,0,0,0,0,0,0,0,0,0,-0.364151938456528,-0.2791099165809055,-1.2291024361970944,-0.10383075521358909,3.258688075386056,3.2587246607213807,-0.18645657139498845,0.08402077961215729,-0.12352822107413065,0.31520626726225226,3.258913094867837,3.2590429137996333,28657587
0,0,0,0,0,0,0,0,0,0,0,0,1.106895221101668,-1.1299990570544072,-0.18442942910545218,-0.6335226814177848,3.2588615606858204,3.2587223003771664,0.07204163933296673,-0.10172572156497497,-0.1339424531391207,0.12031225208190108,3.259488232074765,3.2595393728660786,28658582
0,0,0,0,0,0,0,0,0,0,0,0,0.6722445216470386,-0.7401354956788415,-0.3537774388524817,-0.7042134170786639,3.259021670701703,3.2586243460922653,0.08390512274564775,-0.24162725706425392,-0.11194168471594866,0.564059718139138,3.259217185880802,3.2593603800964805,28659577
0,0,0,0,0,0,0,0,0,0,0,0,0.7170643111544025,-0.7235776810142613,-0.17734997002482056,-0.6500041782860968,3.258869035109166,3.259014589669059,0.3524509254039437,-0.24164220591094565,-0.1331478039202456,0.40663302023804426,3.259356052798754,3.2589827250221637,28660572
0,0,0,0,0,0,0,0,0,0,0,0,0.8293352638882713,-0.7381657884318575,-0.0001014948012226583,-0.6718491639911132,3.2589237164168017,3.258818287708555,0.283909283150349,-0.26553242987780923,-0.1436824135401742,0.6425340822379686,3.25944338553469,3.2594115208877943,28661567
0,0,0,0,0,0,0,0,0,0,0,0,0.749439579181621,-0.778308949268931,-0.27714650358516024,-0.5984908459771688,3.2588863443000724,3.2588902782070965,0.5429924658527929,-0.13898218142773883,-0.1254227906969536,0.4494248806744671,3.2594465326603093,3.2593155335564052,28662562
0,0,0,0,0,0,0,0,0,0,0,0,0.8948973649617868,-0.6852032047752386,-0.29036875848397714,-0.9352509898246515,3.258614904715407,3.258723480549273,0.4159685749970168,-0.23689201317930378,-0.15459625179722927,0.6426115802063441,3.259382803366518,3.2593497585475157,28663557
0,0,0,0,0,0,0,0,0,0,0,0,0.8031220678236565,-0.9619374349042695,0.07900583493779122,-1.1589380572960446,3.259284455690915,3.258703024232748,0.9334028403047132,-0.12432208351160091,-0.12885866509183228,0.9693087898860919,3.2592974375840944,3.259173519512834,28664614
0,0,0,0,0,0,0,0,0,0,0,0,0.5704436624579028,-0.8029733661381443,-0.5103394639896708,0.32491554318851745,3.2587588857124903,3.258527965370174,2.000912571062156,-0.24054857975823637,-0.11345191162251372,0.7342987578271338,3.2591888617502285,3.2593328427473116,28665671
0,0,0,0,0,0,0,0,0,0,0,0,1.9093367230101492,-2.3902867544039195,0.4868150933760516,-0.2957621450140649,3.2586294601713965,3.258575959035868,2.830921319832959,-0.29897575366208,-0.12580319950618737,0.521227731851069,3.259444565706797,3.259351725501028,28666728
0,0,0,0,0,0,0,0,0,0,0,0,1.2254867822512128,-1.0397477554974264,0.04610184980652926,-0.9973551866239531,3.259079499134957,3.2588005851269464,0.6713652934271447,-0.09538898413049984,-0.11859746201008105,0.44399726915326937,3.259781308148063,3.2594221424367595,28667785
0,0,0,0,0,0,0,0,0,0,0,0,1.4205700183594248,-1.3782506201566003,-0.8405960727448549,-0.5495845138531343,3.2588867376907746,3.258466203029895,0.45008144975679515,-0.1415522028866056,-0.11179101607692432,0.43724275079283126,3.2591330002704857,3.2592974375840944,28668842
0,0,0,0,0,0,0,0,0,0,0,0,0.6956776256176979,-1.3678470096405757,-0.5607241583733747,-0.8865016205908799,3.2587687204800506,3.258757312149681,0.5660774190518163,-0.20028464797552203,-0.13567219205763245,0.5945156329292813,3.259437091283451,3.259059042818432,28669898
0,0,0,0,0,0,0,0,0,0,0,0,0.45186468981083505,-1.3486589847396593,-0.747140603916717,-0.7126709237898498,3.259189648531633,3.2588938187234184,0.8803757405728984,-0.1741937964193578,-0.09938780062053211,0.9111951483720718,3.2596054625040844,3.259435124329939,28670955
0,0,0,0,0,0,0,0,0,0,0,0,0.47583988616942,-1.3221538927738536,-0.7813832976082917,-0.4972690579019854,3.258677060446389,3.2584276507410586,0.9868595226835635,-0.20734404413033058,-0.09736734597293685,1.0679298720276202,3.259147162335773,3.2591739129035364,28672012
0,0,0,0,0,0,0,0,0,0,0,0,0.7541319434800081,-1.1567673274001273,-0.6519852938634507,-0.6766178460857684,3.25879468426641,3.2583112070931444,0.5509444655113774,-0.19065247662692983,-0.13994244813232995,0.6450773531290713,3.2593289088402875,3.2592474769648883,28673069
0,0,0,0,0,0,0,0,0,0,0,0,0.9557057327873388,-1.124569085188995,-0.9012931110016239,-0.5822347619813396,3.258760065884598,3.258679420790603,0.6170663615544274,-0.1865486248193532,-0.1273917111625327,0.672224852111918,3.2594760369629903,3.259174306294239,28674126
0,0,0,0,0,0,0,0,0,0,0,0,1.1343853633863168,-1.4197324895539865,-0.6675494036137346,-1.5340844791036221,3.25853543979352,3.2586817811348174,0.6063342698018872,-0.14482285318647065,-0.10637441949539417,0.6542008702994431,3.259144015210153,3.259278161439676,28675182
0,0,0,0,0,0,0,0,0,0,0,0,0.3539989178179404,-1.6146072285899196,-0.441450457745845,-0.3451720172371885,3.259263605983687,3.2585956285709887,0.48171006223083285,0.0336828987220405,-0.12099163782496902,0.5681057415134598,3.259081072697767,3.2590842198233867,28676239
0,0,0,0,0,0,0,0,0,0,0,0,0.10175325891414391,-1.0166852255684404,1.105146206038738,-1.1196060680873474,3.2588053058153754,3.258811993457316,2.4876706227863576,-0.3743537395422148,-0.13028942707650984,0.5586273859295112,3.25958028549913,3.259412701059902,28677296
0,0,0,0,0,0,0,0,0,0,0,0,0.5895014750363201,-0.9519323291697893,-0.4800243830709914,-0.8418812801696395,3.2587761949033967,3.2588332365552466,-0.5237576274582895,-0.19864656909067263,-0.14587281297121202,0.4759850473386106,3.2592049907690273,3.2594933461538966,28678353
0,0,0,0,0,0,0,0,0,0,0,0,1.1151088255773574,-1.040085284720097,-0.26694155537385406,-0.689757882327781,3.2590814660884693,3.2591837476710968,-0.09272887620078041,-0.050789886807189794,-0.14838225226190713,0.17097153317588965,3.2592278074297676,3.259073598274421,28679410
0,0,0,0,0,0,0,0,0,0,0,0,0.7730768529268327,-0.9671179970643516,-0.28454067522772253,-0.6654030639413672,3.2589634488777453,3.2586141179340027,-0.17873863920433988,-0.15970010277034077,-0.13745071142324344,-0.043380766317935734,3.259496493279516,3.259504361093564,28680466
0,0,0,0,0,0,0,0,0,0,0,0,0.8946825736382692,-0.8647848802548505,-0.3321240344195407,-0.6058920986523746,3.258559436626367,3.2587663601358363,-0.37446860962731954,-0.14391372727319326,-0.13160807271099956,0.06505738080231914,3.2590673040231826,3.2592604588580674,28681523
0,0,0,0,0,0,0,0,0,0,0,0,0.7868364795251465,-0.8784917924990406,-0.32263623745873415,-0.38205672288617165,3.2588308762110323,3.258939058654196,-0.6385254309803761,-0.1711882914529194,-0.14020956041926866,0.1657535988990782,3.2593438576869795,3.259048421269467,28682580
0,0,0,0,0,0,0,0,0,0,0,0,1.056531376425192,-1.0587139080421815,-0.18547978228089598,-0.7395422624996021,3.258763999791622,3.2585362265749245,0.207473863062127,-0.17573313423790146,-0.13243222623255566,0.07176075837144355,3.2592112850202657,3.259079499134957,28683637
0,0,0,0,0,0,0,0,0,0,0,0,0.999457073146948,-0.7839277486715017,-0.47975451704913574,-0.5280935797802901,3.2588108132852094,3.25863654120404,0.5459653193909311,-0.05429814509131254,-0.11872964128609195,0.8644682007394077,3.2591243456750325,3.2593529056731345,28684693
0,0,0,0,0,0,0,0,0,0,0,0,0.8164521117749347,-0.9575251647860008,-1.0073122986927388,-0.03254049212223197,3.2590342592041797,3.2591463755543675,0.6527240816025831,-0.33296943103902704,-0.1284892712222661,0.8064155347842615,3.2592573117324486,3.259243543057864,28685750
0,0,0,0,0,0,0,0,0,0,0,0,0.4412942816369869,-0.8798175191661738,0.021560957617873862,-1.2000580072472105,3.259221119787826,3.2584736774532406,1.7384533093516004,-0.11455891305910504,-0.14496526062074427,0.4772537323538938,3.259378476068792,3.2592919301142604,28686807
0,0,0,0,0,0,0,0,0,0,0,0,-1.7025516870679482,0.30156583804676984,-1.254216498639166,-0.654664284546886,3.2587891767965766,3.2589492868124585,3.2090421687414845,-0.3164120097651493,-0.13382364914699188,1.228855780226681,3.259077138790743,3.2593017648818208,28687863
0,0,0,0,0,0,0,0,0,0,0,0,0.6803011632324651,-1.0868578656742414,-0.8046488171397229,-1.2969060774929615,3.2587561319775737,3.2589233230260994,1.0674200376772924,-0.18330039778952573,-0.1354038995985865,1.156475038108234,3.2592116784109684,3.259435911111344,28688920
0,0,0,0,0,0,0,0,0,0,0,0,0.24091285954867117,-0.8878029570344634,-1.0834691981636522,-0.9610169006606222,3.2587769816848016,3.2583871314987096,1.244151204127217,-0.23229130891457903,-0.13483190951727742,0.8843820314862766,3.2597018432261757,3.259050388222979,28689977
0,0,0,0,0,0,0,0,0,0,0,0,0.6463983591077755,-1.2878525838676194,-0.7077755698890172,-1.0782689664684493,3.258843858104212,3.25864794953441,1.3100059878833277,-0.1794298266684802,-0.10399361896438825,1.1881693468295749,3.2592643927650915,3.2589567612358046,28691033
0,0,0,0,0,0,0,0,0,0,0,0,0.38959448213511494,-1.2106972587939808,-0.8566649027663352,-1.2521598520469488,3.2585968087430963,3.259018523576083,1.481738338677685,-0.18752856105906499,-0.11112815274335773,0.9863949282640132,3.2588615606858204,3.2590488146601695,28692090
0,0,0,0,0,0,0,0,0,0,0,0,0.3173805376744911,-1.0554098195326111,-0.5324035683159314,-0.652551776474926,3.259033079032073,3.2586058567292517,0.9144024627688482,-0.150315767564269,-0.14100460302884615,0.6999022483709154,3.2594008993388295,3.2589237164168017,28693147
0,0,0,0,0,0,0,0,0,0,0,0,0.9723611083461174,-1.2679938278190883,-0.452719134416477,-0.27934005014181734,3.2590657304603727,3.258752984851954,0.7998160123605742,-0.16079018840672832,-0.13032561902113188,0.5383028552893228,3.259787209008599,3.2595649432617355,28694203
0,0,0,0,0,0,0,0,0,0,0,0,1.0503885806070066,-1.5892948972338314,0.07112385882423625,-0.9294783746574371,3.2586306403435037,3.2586798141813054,-0.06527374568864651,-0.17607223702338182,-0.100535321299472,-0.09047710782016608,3.2593670677384217,3.259370608254743,28695260
0,0,0,0,0,0,0,0,0,0,0,0,0.7969061013348223,-1.4060452468449172,-0.0843083482156215,-1.1037819270827682,3.2590043615107964,3.2591082166562337,-0.5688228927639595,-0.04752120346083682,-0.11210966254587917,0.5933209053660518,3.259409947324985,3.2590956281537564,28696317
0,0,0,0,0,0,0,0,0,0,0,0,2.5703703964198104,-2.0233429221323633,-0.2484317360438986,-0.6308491982041834,3.25922662725766,3.258962662096341,-1.0170019050838832,-0.317560317225494,-0.007232094673168024,0.7779765341253917,3.2593257617146683,3.2593926381340785,28697373
0,0,0,0,0,0,0,0,0,0,0,0,1.0584605644298273,-0.8858352167409916,0.05333394447969728,-0.3137416736771671,3.258511836351375,3.258577532598678,-0.5866938455931956,-0.07429616144849793,-0.11676662168104907,-0.1225640204625154,3.2592994045376065,3.259116084470282,28698368
0,0,0,0,0,0,0,0,0,0,0,0,1.2306429541877453,-0.6002044558768815,-0.25297067796834444,-0.6568696328246155,3.2587352822703455,3.2586546371763507,0.1207799936270706,-0.3597738933293692,-0.1267992647646981,0.3769438239269046,3.2591554235405233,3.2591117571725556,28699363
0,0,0,0,0,0,0,0,0,0,0,0,0.751106768978449,-0.7244895606624555,-0.2911712755169005,-0.7917971362825794,3.2588131736294237,3.2590397666740136,-0.47163099904429895,-0.20219534661714392,-0.12909587968538755,0.3458104903472054,3.2593470048125983,3.2590539287393003,28700358
0,0,0,0,0,0,0,0,0,0,0,0,0.8483761606664848,-1.0195935630313828,-0.1592107247365385,-0.6401399064230807,3.258789570187279,3.258620018794539,-0.0387544916575541,-0.09247592597912858,-0.11174105545771783,0.28625467851813774,3.259200663471301,3.2595885467038803,28701353
0,0,0,0,0,0,0,0,0,0,0,0,0.6215057756311625,-0.6385612295342956,-0.350852578980038,-0.9960750932782999,3.2589988540409625,3.2589091609608127,0.28275114092244397,-0.28141912000407215,-0.1625777557584948,0.7442362003607988,3.259062976725456,3.259073598274421,28702348
0,0,0,0,0,0,0,0,0,0,0,0,0.7362940354697747,-0.8546503489792763,-0.23634283975873466,-0.6521343889396654,3.258917028774861,3.258714432563118,-0.001029503468215879,-0.24648523884835705,-0.14367847963315006,0.38427820018270015,3.2594846915584434,3.2590641568975633,28703343
0,0,0,0,0,0,0,0,0,0,0,0,1.081314597286534,-0.5197623514845789,-0.17915248622327876,-0.6213224555638379,3.258774621340587,3.258465022857788,0.4181589744280546,-0.10509432614974096,-0.131485728202549,0.21775552246040372,3.259055108911408,3.259234101681006,28704338
0,0,0,0,0,0,0,0,0,0,0,0,0.26647696095430384,-0.4629850581866572,-0.6199959421153,-0.7378967091914068,3.259025997999429,3.2589036534909788,0.4967037554626173,-0.1333846251230985,-0.11400777268502385,0.4297848498564779,3.259114510907472,3.2593375634357407,28705333
0,0,0,0,0,0,0,0,0,0,0,0,1.3711184467218454,-0.7972184535525385,-1.0843535404626774,0.7352090639125184,3.2587152193445226,3.2586211989666456,0.8756617397858786,-0.30862562759228085,-0.1357740802495575,0.28430110028995276,3.2590964149351613,3.259054322130003,28706328
0,0,0,0,0,0,0,0,0,0,0,0,-0.07314195312761701,0.3446067147978204,-0.7810556031531815,0.09051998740672915,3.2588607739044155,3.2585307191050905,1.616011240006833,-0.31103986633299185,0.4310012139083402,0.03345787924026004,3.259276194486164,3.2591247390657347,28707323
0,0,0,0,0,0,0,0,0,0,0,0,0.4792061304099715,-0.8976373312040962,-0.22733222571995565,-0.5975754258126528,3.2589268635424213,3.258979184505842,0.9166770478102025,-0.02589572976776716,-0.10874341830532769,0.6091395389007973,3.2588021586897558,3.259048027878764,28708318
0,0,0,0,0,0,0,0,0,0,0,0,0.7868734582511732,-0.7069954761261315,-0.3398321318426289,-0.5452812129594341,3.2586865018232465,3.2591082166562337,0.947791498636186,-0.2590764950605029,-0.10267339976708885,0.7947098010432482,3.2595464538987224,3.2596031021598697,28709313
0,0,0,0,0,0,0,0,0,0,0,0,0.8694198095106851,-1.2789855574352214,-0.5230389026449802,-0.6815139867680057,3.2591625045731667,3.25879468426641,0.6044880872354611,-0.22359855456335,-0.1260211379553244,0.5528496566831657,3.259661323983827,3.2592297743832797,28710308
0,0,0,0,0,0,0,0,0,0,0,0,0.764544208591486,-1.1714400138187426,-0.7880575642654375,-1.0111572994181275,3.258911521305027,3.258856053215987,0.8959422106673968,-0.18773076388010546,-0.1339298646366435,1.0301112568511077,3.2592215131785287,3.2590861867768988,28711303
0,0,0,0,0,0,0,0,0,0,0,0,0.5793649768072339,-0.6949958795304154,-1.1045156007427692,-1.3069678314885893,3.258804912424673,3.2586872886046514,0.6451753074139722,-0.17473234829096176,-0.14563323803344227,0.4735857574445912,3.2592368554159226,3.2594410251904753,28712298
0,0,0,0,0,0,0,0,0,0,0,0,0.4761093588005732,-1.552933401219058,-0.8550378388211535,-0.6846001368284389,3.259117264642389,3.258938271872791,0.8313624061778075,-0.18932320944347494,-0.13606282902512895,0.7166654129821555,3.259474070009478,3.259075565227933,28713292
0,0,0,0,0,0,0,0,0,0,0,0,0.48708220566299026,-1.0342017333748024,-0.7204691076837906,-0.4908146966474886,3.2588576267787963,3.2585712383474394,0.7088282834086755,-0.14913166155000465,-0.13428155592460106,0.8638505773366186,3.2592887829886417,3.259092481028137,28714286
0,0,0,0,0,0,0,0,0,0,0,0,1.0777465436156444,-1.5068000801563357,-0.508552683419309,-0.9360011858941538,3.2585735986916537,3.2584697435462164,0.4377785489295183,-0.10801800585007737,-0.13930790892933714,0.8621751263350399,3.2591967295642768,3.2594390582369632,28715280
0,0,0,0,0,0,0,0,0,0,0,0,1.2665288408433009,-2.084841690640651,1.3123769536467735,-1.9655168492218074,3.2589237164168017,3.2589457462961366,-0.21285820160605926,0.24137863414032867,-0.11597315263428123,0.24521419348885937,3.2591538499777135,3.259168012043,28716274
0,0,0,0,0,0,0,0,0,0,0,0,0.7320151247996239,-1.4209661627967551,-0.2890721427288226,-0.43683677158794065,3.259099168670078,3.258217973496672,0.08267577680060587,0.2341276567134448,-0.14338815729476895,0.9279626402810383,3.259502394140052,3.259140081303129,28717268
0,0,0,0,0,0,0,0,0,0,0,0,1.0171116610898567,-0.9204201603436661,-0.42531239096073997,-0.38529472175773644,3.2588473986205333,3.2586652587253164,0.14626384332941095,-0.04928123346343439,-0.12761633725361077,0.03774111720813717,3.259060222990539,3.259471709665264,28718262
0,0,0,0,0,0,0,0,0,0,0,0,1.0199735784499142,-0.8092215906645763,-0.01218094970952865,-0.456523615899517,3.258871002062678,3.258828515866818,0.236586741994231,-0.0044354801697111335,-0.12304080999384046,0.6818719723072019,3.259060616381242,3.259064550288266,28719256
0,0,0,0,0,0,0,0,0,0,0,0,0.7109628213599707,-0.8161578555295295,-0.16289797579025933,-0.5756895274745855,3.258927650323826,3.2586558173484583,0.41073805221772813,-0.2364407940436356,-0.16181300423300315,0.7764411302138722,3.2597683262548833,3.2592887829886417,28720250
0,0,0,0,0,0,0,0,0,0,0,0,0.7543306057847269,-0.5828189471744235,0.10058174140235679,-0.7071288355742497,3.2589901994455097,3.2586676190695307,0.2903054225808886,-0.16441410355736058,-0.13769697400295425,0.2907904733169643,3.259187681578121,3.2593257617146683,28721243
0,0,0,0,0,0,0,0,0,0,0,0,0.685746870725974,-0.4046735411493231,-0.04406683970294471,-0.49610422803213927,3.258727414456297,3.2588603805137133,0.4459520275535616,-0.22750217050339822,-0.14064307697332823,0.5170821806290365,3.258876509532512,3.259097988497971,28722237
0,0,0,0,0,0,0,0,0,0,0,0,0.7507649124580517,-0.6467732604471754,-0.2901181686065398,-0.565574665734132,3.2588352035087587,3.2586172650596215,0.5362088365803762,-0.2316744722931948,-0.12213050390845583,0.6046969776984427,3.259442205362583,3.259404439855151,28723231
0,0,0,0,0,0,0,0,0,0,0,0,0.9309252656609136,-1.2555965132232323,0.5593834828595499,-1.350429636291222,3.2591208051587106,3.259088547121113,0.5619511439742021,-0.07855068189509891,-0.11069975026842954,0.65783698056185,3.2594115208877943,3.2593623470499926,28724225
0,0,0,0,0,0,0,0,0,0,0,0,1.0984837411026647,-0.7166673799356675,0.15973275419864105,-1.283908842075925,3.2588045190339705,3.258778555247611,1.541408627201155,-0.2751807302452004,-0.12758289904390563,0.7867487533985082,3.259051568395086,3.2590027879479866,28725219
0,0,0,0,0,0,0,0,0,0,0,0,-0.2558129257932813,-0.4130854145390289,-0.40188046716218795,-0.8043262367637439,3.2588654945928446,3.258780522201123,2.7424619129254713,-0.3225658205230022,-0.13521231832651118,-1.1357803268170745,3.259633786634658,3.2595370125218643,28726213
0,0,0,0,0,0,0,0,0,0,0,0,0.6511131466762002,-0.6681414566208668,-0.37900165069122915,-0.3232330111542953,3.2591518830242014,3.259002001166582,1.1485155640263036,-0.22593057464725666,-0.12663364727898208,0.692162679691634,3.259388310836352,3.259236068634518,28727207
0,0,0,0,0,0,0,0,0,0,0,0,0.5680750570386716,-0.6315954603666616,-0.5206667567094274,-1.3318474330720225,3.2587282012377026,3.2588151405829358,0.7944214456583792,-0.13637911514986933,-0.13170524021449567,0.5117407216716673,3.259294290458475,3.2592573117324486,28728201
0,0,0,0,0,0,0,0,0,0,0,0,0.8188458941991202,-1.3167412300993477,-0.8270866426332762,-0.2631976560589857,3.2588218282248764,3.2585724185195466,0.9035814647175627,-0.11510415257265003,-0.12745740740983572,0.5450333768169137,3.259463448460513,3.259444565706797,28729194
0,0,0,0,0,0,0,0,0,0,0,0,0.6003020167710801,-1.1512838543991868,-0.7187161587138364,-0.7687912546147411,3.258996493696748,3.258671552976555,0.720798769092413,-0.2062122590794872,-0.11136379377410337,0.5471930917731632,3.2591263126285446,3.259254557997531,28730251
0,0,0,0,0,0,0,0,0,0,0,0,0.7646401959228749,-1.6292421495011031,-0.2755296677982411,-0.5696659290392314,3.258784062717445,3.25817037322168,0.6974435564808316,-0.14869342430751614,-0.1416312744177907,0.2262684972606298,3.2593942116968884,3.259164078135976,28731308
0,0,0,0,0,0,0,0,0,0,0,0,0.6136257664711197,-1.4057612187577746,-0.8661416847874741,-0.6197134875909671,3.258582253287107,3.2589052270537886,0.6258342535298173,-0.14090822230675487,-0.1309841550569719,0.4845314603485418,3.2592805217838907,3.2592329215088984,28732364
0,0,0,0,0,0,0,0,0,0,0,0,0.3239017753483981,-1.1888133274094255,-0.508425224831727,-0.8769378992245076,3.2589193891190753,3.2588847707372626,0.6922889581071089,-0.1665891607510043,-0.12340981047270422,0.3155284542475288,3.2591204117680084,3.2591298531448665,28733421
0,0,0,0,0,0,0,0,0,0,0,0,0.7895516621532037,-1.168884547815865,-0.9099449527198019,-0.645578532883946,3.2588556598252842,3.2585448811703777,0.3033722881522522,-0.1207681919059982,-0.1375785634015278,0.17570677706083976,3.2593898843991616,3.2592407893229467,28734477
0,0,0,0,0,0,0,0,0,0,0,0,0.35954533333126704,-0.20229487446485453,-1.0135152832883934,0.2075092682253442,3.258759279103193,3.2590342592041797,0.8285764132233158,-0.036586122105851424,-0.11401760745258419,1.4343705575907892,3.259322221198347,3.2592533778254245,28735534
0,0,0,0,0,0,0,0,0,0,0,0,0.6928715697373831,-0.11894718634452657,-0.3363974376198575,-0.5220188405536222,3.2589508603752684,3.2588045190339705,0.43037218217518114,-0.09500188767932506,-0.08357939524404945,1.0809428430727532,3.259012622715547,3.2588737557975955,28736590
0,0,0,0,0,0,0,0,0,0,0,0,1.1094215761925668,-0.6876103624833062,-0.2575886914239754,-0.5995215296174919,3.2589567612358046,3.258575565645166,-0.5179897329795042,-0.21382594273399622,-0.11830477932748547,0.39417394330190936,3.2595102619541003,3.2594972800609208,28737647
0,0,0,0,0,0,0,0,0,0,0,0,0.8236507682383976,-0.4484480915603747,-0.10513091148506538,-0.5010090233098297,3.258729774800512,3.2586986969350216,-0.18799394226002003,-0.21511233033088806,-0.12202468180950662,0.432914666284879,3.259163684745274,3.2593147467750008,28738704
0,0,0,0,0,0,0,0,0,0,0,0,0.9009516478719292,-0.980172274133238,0.133716253485233,-0.5159067292102252,3.258784456108147,3.258609790636276,0.1252402574110338,-0.14332600156378764,-0.12294364249034433,0.279348311346568,3.2589917730083195,3.258912701477134,28739760
0,0,0,0,0,0,0,0,0,0,0,0,1.1180663368781014,-0.7131178156277913,0.04680601916384925,-0.8782467100914371,3.258917028774861,3.258747083991418,0.3951995128631011,-0.23509579123208418,-0.10637323932328692,0.21646244722157088,3.2593029450539284,3.259639687495194,28740817
0,0,0,0,0,0,0,0,0,0,0,0,0.6436949782007906,-0.6010533930126898,0.02658180315277614,-0.5722847309451975,3.2588576267787963,3.2587246607213807,0.48541816299178153,-0.10061399943995468,-0.1414672304948843,0.3040626888349877,3.259378082678089,3.2594512533487383,28741873
0,0,0,0,0,0,0,0,0,0,0,0,0.8564870901688444,-0.7782381389424966,-0.09088230024365189,-0.5692756854624373,3.258725840893488,3.2588556598252842,0.5475912031640056,-0.22148093241225866,-0.13154867071493515,0.5055774695369565,3.259506328047076,3.259003968120094,28742930
0,0,0,0,0,0,0,0,0,0,0,0,0.5647831636408762,-0.7045619612410021,0.06058295495306908,-0.9731880156025905,3.258912701477134,3.2589579414079117,1.0512575806686377,-0.1687520228328732,-0.15404983211157705,0.8915865888102756,3.259241576104352,3.259180600545478,28743986
0,0,0,0,0,0,0,0,0,0,0,0,1.194109153045315,-1.0226030019048453,-0.514208854938609,-0.3091826688268982,3.2588312696017345,3.258614511324705,0.9689755879611477,0.08759434075288067,-0.13328509727538793,1.0447406702924573,3.259331269184502,3.2592108916295635,28745043
0,0,0,0,0,0,0,0,0,0,0,0,1.985823283889685,-1.912810756303162,-0.682021460774119,0.797770774098727,3.258913094867837,3.2587160061259275,2.548631626204446,-0.34704101646435453,0.2749549239820151,-0.2171906134117381,3.259574778029296,3.2590842198233867,28746099
0,0,0,0,0,0,0,0,0,0,0,0,0.7344549339359919,-0.6076560625619962,-0.7725957360977812,-0.3367750926941744,3.2589957069153437,3.258985085366378,0.15675714692558607,-0.1168378253981859,-0.13788304780519578,0.9287014280201706,3.2590680908045875,3.25907989252566,28747156
0,0,0,0,0,0,0,0,0,0,0,0,0.6635478333887855,-0.5883445129805223,-0.283854995233416,-1.4476518210949683,3.2585173438212087,3.258280916009058,1.0572139092938793,-0.13018635871247752,-0.1427024773004624,0.7943856471044597,3.2590983818886734,3.259341497342765,28748213
0,0,0,0,0,0,0,0,0,0,0,0,0.8431928447714858,-0.9864433153204102,-1.098577368089839,-0.9030759576649615,3.2588147471922335,3.2590578626463245,0.9832454423004916,-0.14310294903551923,-0.14948295944725984,0.7632464126642241,3.259257705123151,3.2591813873268825,28749269
0,0,0,0,0,0,0,0,0,0,0,0,0.4729075518736305,-1.299799466109212,-0.23139555828518368,-0.7003416657855113,3.2588332365552466,3.2590964149351613,0.6073582658002693,-0.16229451445275717,-0.13539681856594307,0.33460554297036443,3.2594504665673334,3.259153063196309,28750326
0,0,0,0,0,0,0,0,0,0,0,0,0.41773765298576987,-1.0841737609116746,-0.42530885044441824,-1.1061694152557153,3.258846611839129,3.258666832288126,0.4118895068036922,-0.13239800124144568,-0.11582130382314965,-0.05574857661111075,3.2592148255365876,3.259163684745274,28751382
0,0,0,0,0,0,0,0,0,0,0,0,0.6175848505002082,-1.1576257059127932,-0.4219953205579901,-0.6622815087177167,3.2588426779321047,3.2587301681912146,0.2600363683743916,-0.03847715121235266,-0.12293144737856952,0.13009745241373208,3.2593938183061857,3.2590598295998365,28752439
0,0,0,0,0,0,0,0,0,0,0,0,0.47115971698280773,-1.039652948338145,-0.46682219109799755,-0.7387550877040728,3.2586211989666456,3.2588289092575202,0.9624547436779431,-0.21227401641297533,-0.12078864822252372,0.7451913529862586,3.259246690183483,3.2593662809570167,28753495
0,0,0,0,0,0,0,0,0,0,0,0,0.6155801314807094,-1.251282590780567,-0.1813542939846866,-0.8965433116606846,3.2589878391012954,3.2585857938034284,0.566398819255688,-0.06244762688250862,-0.10526702466810044,0.6629782036516909,3.259033472422775,3.259175093075644,28754552
0,0,0,0,0,0,0,0,0,0,0,0,0.32606581760237424,-1.1857252103954803,-0.8084489713250363,0.28726097193491124,3.258978004333735,3.258858020169499,0.6560431189588449,-0.195124148741263,-0.12170918246617109,-0.04545393531965438,3.259230167773982,3.25905864942773,28755609
0,0,0,0,0,0,0,0,0,0,0,0,0.7610359503073633,-1.2223577526042164,0.41196385764644833,-1.2671562990136502,3.2586542437856485,3.2586038897757397,-0.7948939078919778,0.10792201851868849,-0.10508016408445406,0.6489251075893768,3.259324581542561,3.2595153760332316,28756665
0,0,0,0,0,0,0,0,0,0,0,0,0.46177774212095046,-0.6095250617891624,-0.4154433984092949,-0.7340670507034124,3.258617658450324,3.2586137245433,-0.547927552214569,-0.1886560188121818,-0.10935199372196122,0.13216865446193865,3.2591239522843303,3.258822615006282,28757722
0,0,0,0,0,0,0,0,0,0,0,0,0.9709622110083354,-0.8862223131921664,-0.3468828734019843,-0.6936040632252768,3.258845038276319,3.2589248965889093,0.06830914834846834,-0.3033396367239519,-0.14658327657977063,0.8137192265652688,3.2595456671173175,3.2590614031626464,28758778
0,0,0,0,0,0,0,0,0,0,0,0,0.8340221207168246,-0.621208372260138,0.06439019017102601,-0.25772205087209354,3.2587856362802547,3.258653457004244,0.4938044659858305,-0.11825678566179104,-0.1439825706461156,0.6680631718710865,3.2592565249510432,3.259309239305167,28759835
0,0,0,0,0,0,0,0,0,0,0,0,1.1964289780174469,-0.7366583152602094,0.16733345595997046,-0.453277749213904,3.2586806009627103,3.2585433076075683,0.23821144559519833,-0.10911595930051317,-0.12024930956951493,0.3565897889840351,3.259142048256641,3.2591432284287487,28760891
0,0,0,0,0,0,0,0,0,0,0,0,0.8388974116918338,-0.6061222322132864,-0.32362404151249424,-0.2547893231856016,3.259287209425832,3.2592584919045553,0.07807625270798835,-0.3194922589650463,-0.1250726729718057,0.27439355544967114,3.259661323983827,3.259411914278497,28761948
0,0,0,0,0,0,0,0,0,0,0,0,0.9161270876082286,-0.846496933281056,0.005151451248103529,-0.5315491237102895,3.258826942304008,3.2586865018232465,0.35637814478613666,-0.22518627943829053,-0.11836182097933541,0.1727610674811682,3.2593104194772744,3.2595433067731028,28763004
0,0,0,0,0,0,0,0,0,0,0,0,1.018749739974706,-0.6716446008258582,-0.3860657675344667,-0.17957970852609972,3.258900506365359,3.2586778472277933,0.8180866501434624,-0.21856394035386328,-0.1419573953100914,0.8135355131072417,3.259012622715547,3.2590059350736063,28763999
0,0,0,0,0,0,0,0,0,0,0,0,1.225094965111609,-1.0656399447488718,-0.45938395969676493,-0.31872357353253045,3.258771474214968,3.258699483716426,0.5949908488977966,-0.1969608899308312,-0.13168399711656537,0.7455280954275244,3.2594001125574246,3.2592868160351296,28764993
0,0,0,0,0,0,0,0,0,0,0,0,1.038897638189511,-1.6496174275419029,1.2807518816890575,-2.14323385277198,3.2586211989666456,3.258669979413745,1.5737296073114404,0.18782006356955333,-0.12697314345516486,0.4812265850575667,3.259059042818432,3.259490985809682,28765988
0,0,0,0,0,0,0,0,0,0,0,0,1.5452945405595946,-0.6766115518345298,0.2431960991854786,-0.7251835018615128,3.258741969912287,3.258417815973498,2.052608436657004,-0.23418587853740197,-0.12517102064740904,0.8034706119859947,3.25963575358817,3.2594540070836553,28766982
0,0,0,0,0,0,0,0,0,0,0,0,0.9116534485403834,-0.4210016156436938,-0.3902648198920273,-0.8703962052340751,3.258792717312898,3.258934337965767,1.2232928423038534,-0.18528938118092786,-0.11779612514926494,0.9083131680861911,3.2594520401301432,3.259261639030175,28767977
0,0,0,0,0,0,0,0,0,0,0,0,0.43794023250821024,-1.0826399305629648,-0.007742322414198209,-0.9223462012226821,3.2591507028520943,3.2585696647846296,0.7713400329756775,-0.12395347642343955,-0.1069125779762957,0.48619628980115526,3.259231347946089,3.2589307974494455,28768971
0,0,0,0,0,0,0,0,0,0,0,0,0.1433370165034552,-0.8488470493372737,-0.6363031669024427,-1.0257139355795306,3.258756525368276,3.2592604588580674,0.520689179979465,-0.21181846997958062,-0.1415380408213187,0.27895374047204735,3.259318680682025,3.2591739129035364,28769966
0,0,0,0,0,0,0,0,0,0,0,0,0.25713865246041445,-0.9629134372369571,-0.6375006482005892,-0.917254151970643,3.2588529060903673,3.2587809155918257,0.22944945448034457,-0.15748609989715814,-0.1139503376424715,0.2452299291169559,3.259593660783012,3.259378869459494,28770960
0,0,0,0,0,0,0,0,0,0,0,0,0.7168408652354318,-0.9075342544954126,-0.5247784763310522,-0.6517437519721688,3.2590633701161584,3.258698303544319,0.6283885393605875,-0.29503358543319524,-0.12912813772298548,0.7526665631135181,3.258971710082496,3.258881230220941,28771954
0,0,0,0,0,0,0,0,0,0,0,0,0.4961931343308847,-0.8858721954670185,-0.4469358977002975,-0.8419941833012322,3.258321828642109,3.258376903340447,0.7444537454192334,-0.19837394933390012,-0.12432641080932745,0.6731182423970987,3.2592423628857565,3.2592553447789365,28772949
0,0,0,0,0,0,0,0,0,0,0,0,0.7462503607571556,-1.0493586837480884,-0.5142729776231023,-0.8771377417013337,3.2587514112891447,3.2589842985849735,0.4927194944285743,-0.15723551001972078,-0.11901563632674649,0.021004703164661305,3.2592990111469042,3.2593458246404916,28773943
0,0,0,0,0,0,0,0,0,0,0,0,0.6426017454387838,-1.058464104946149,-0.5446451001936317,-0.718227567461439,3.2589453529054344,3.258611757589788,1.1371764704199399,-0.294978117344155,-0.1283747945278638,0.5137403266120346,3.2591774534198583,3.259201843643408,28774938
0,0,0,0,0,0,0,0,0,0,0,0,2.0833692292415176,-1.1903880703911864,-0.22741562454886727,-1.6337083141456026,3.2587006638885336,3.258470530327622,0.4691868626102045,0.30995607494784294,-0.15193653725821224,0.8440398149537819,3.2594516467394405,3.259151096242797,28775932
0,0,0,0,0,0,0,0,0,0,0,0,1.1903436172418136,-0.6288094674121698,-0.3146803038931255,-0.46568686553083244,3.2590889405118153,3.2586613248182923,1.3191027544859355,-0.1549817746855944,-0.10597237419752767,0.1528535309855379,3.2593348097008237,3.2595079016098856,28776927
0,0,0,0,0,0,0,0,0,0,0,0,0.7676071486004767,-0.42131200090789805,-0.23544040148739834,-0.6186737559644885,3.2587856362802547,3.2587411831308817,-0.5975836870174035,-0.21461233074812064,-0.1174896737920849,-0.025229325917878857,3.2593902777898642,3.2593580197522662,28777921
0,0,0,0,0,0,0,0,0,0,0,0,0.7971783277008924,-0.8282746825545647,-0.14793063973553655,-0.5600424122860923,3.2587777684662065,3.2586353610319327,-0.4143792765592666,-0.18373666807850217,-0.1255695254289538,0.027489748893946276,3.25950042718654,3.2593084525237623,28778915
0,0,0,0,0,0,0,0,0,0,0,0,1.069992812871076,-0.6729262677343211,-0.026880386695907914,-0.645316928066841,3.2587376426145602,3.2587415765215844,0.06534534279648577,-0.272602447581583,-0.10399204540157858,0.4141298668539365,3.2591019224049953,3.259212071801671,28780034
0,0,0,0,0,0,0,0,0,0,0,0,0.9521132888928995,-0.5359928650847513,-0.303693688356124,-0.6397901820886351,3.2588123868480188,3.2584461401040716,0.451587742756336,-0.28923107257259756,-0.13378037616972638,-0.06527177873513444,3.2592726539698424,3.258981938240759,28781153
0,0,0,0,0,0,0,0,0,0,0,0,1.3054878956661098,-0.6398570585080454,-0.25897932755700676,-0.4711420144011991,3.258637327985445,3.2587167929073324,0.05553575224110511,-0.1997295736944167,-0.0978791472767767,0.2251237303166068,3.2593887042270544,3.2592612456394727,28782272
0,0,0,0,0,0,0,0,0,0,0,0,0.8226554897612917,-0.7065564521022382,-0.48847559553093856,-0.582657656986434,3.2586267064364796,3.25900003421307,0.4625263646276432,-0.19486097036134842,-0.08594524692836367,0.29345294159089824,3.259350151938218,3.2591652583080837,28783390
0,0,0,0,0,0,0,0,0,0,0,0,0.7123530641022996,-0.9733272759112449,-0.47871911272038375,-0.5656903226006416,3.258871002062678,3.258501608193112,0.3646306949413651,-0.2208778644654589,-0.12047668939550989,0.48569432326487577,3.2591444086008554,3.259037012939097,28784509
0,0,0,0,0,0,0,0,0,0,0,0,0.6209707642758803,0.25219058420545865,-1.2255863100989235,0.7538510625184849,3.2590409468461212,3.2589839051942713,0.2705422604730439,-0.05704637253837258,-0.12962105627310946,0.6296410953570717,3.2592537712161267,3.259322614589049,28785628
0,0,0,0,0,0,0,0,0,0,0,0,1.8213033582333753,-0.5794137572543332,-0.7236634401873874,-0.19951045507317244,3.258523244681745,3.2587797354197185,1.9971820470311696,-0.30660832007030486,-0.12773081394801306,1.2653915483226237,3.2591975163456812,3.2591538499777135,28786747
0,0,0,0,0,0,0,0,0,0,0,0,0.7705992782830332,-0.4044099693787061,-0.7783242915063251,-1.0182493470012364,3.259049994832276,3.2587348888796432,0.630809859133942,-0.1573031732205359,-0.1259680302104986,0.7389836477021751,3.2592364620252203,3.259116084470282,28787865
0,0,0,0,0,0,0,0,0,0,0,0,0.5990655897933947,-1.445854812366344,-0.5662611325098433,-0.837538640205698,3.258723480549273,3.258383590982388,1.230896691190802,-0.18761786074851283,-0.1279227886107908,0.8945944541209285,3.2593765091152798,3.259197122954979,28788984
0,0,0,0,0,0,0,0,0,0,0,0,0.21553365177317282,-1.0826434710792865,-0.20996087908278452,-0.9649181562564558,3.258550782030914,3.2585366199656267,0.9322073259600789,-0.17790583108733068,-0.12860532147947806,0.6761575789639447,3.259099168670078,3.2589193891190753,28790103
0,0,0,0,0,0,0,0,0,0,0,0,0.17664894779311988,-0.8595665525873366,-0.37304099476826125,-0.9943009012104155,3.2588186810992577,3.258834416727354,1.0876690373026177,-0.12326110878719196,-0.1520384254501373,0.8017924072494992,3.2592238735227435,3.2590519617857883,28791222
0,0,0,0,0,0,0,0,0,0,0,0,0.022472050484663303,-0.9926474800881719,-0.21113239659457164,-0.7835819582440803,3.2590090821992255,3.258610577417681,0.8988454340512078,-0.21565245576530168,-0.13613363935156336,0.520457079465041,3.2593123864307865,3.2592765878768666,28792340
0,0,0,0,0,0,0,0,0,0,0,0,0.8929134956495159,-0.8378376171395322,-0.5148650306302345,-0.8209466005500078,3.2587140391724154,3.258577532598678,0.5122478022870782,-0.10499440491132794,-0.1292851006132484,0.3381385848687392,3.2594492863952262,3.259156997103333,28793459
0,0,0,0,0,0,0,0,0,0,0,0,0.9945058577663729,-1.169681950769657,-0.2757940263502629,-0.8452793890570865,3.259300584709714,3.2590928744188394,0.6077146777766559,-0.12003963232512858,-0.1206415200998211,0.45398427891543847,3.2594008993388295,3.2591566037126305,28794578
0,0,0,0,0,0,0,0,0,0,0,0,0.6784695361220283,-1.2207810426689438,-0.40553349322479876,-0.3075123319044509,3.258868641718464,3.2588033388618634,0.9144158380527303,-0.3033652071196088,-0.11226151135701076,-0.027629402593303033,3.2592974375840944,3.259210104848159,28795697
0,0,0,0,0,0,0,0,0,0,0,0,1.219591822575548,-1.5576190778755041,1.3718595948051924,-1.505120695247733,3.2587537716333594,3.258780128810421,1.034162394304561,-0.30973538276378904,-0.1120687499128282,0.32282703194940465,3.259383590147923,3.259332055965907,28796815
0,0,0,0,0,0,0,0,0,0,0,0,1.001961791749214,-1.634682349524778,0.06862032039407735,-0.8489847360831184,3.2587958644385173,3.2588001917362437,-0.5310495175182245,0.016434289984022375,-0.1269341977756259,0.5365282698307359,3.2595161628146365,3.259014589669059,28797810
0,0,0,0,0,0,0,0,0,0,0,0,0.6382433698467457,-0.5420888474093494,-0.35765351744336094,-0.6201910639036969,3.258727414456297,3.25879468426641,-0.6395879792675946,-0.32269367250128655,-0.0855526430073551,0.10901564467139775,3.258853692871772,3.258902473318871,28798804
0,0,0,0,0,0,0,0,0,0,0,0,0.7896586644242601,-0.636283497367322,-0.13875519499244632,-0.5098418247511178,3.258755345196169,3.258736462442453,-0.17006634116963637,-0.3213191653870541,-0.11470761474461731,0.4261924059620387,3.2591939758293598,3.2594449590974994,28799799
0,0,0,0,0,0,0,0,0,0,0,0,0.8460103089821707,-0.6627103045833473,-0.1443141990082501,-0.6376949832075813,3.2587077449211765,3.2587207268143565,0.0881269917639484,-0.20858243806152796,-0.09308410800505972,-0.10747866719706858,3.2593914579619714,3.2592643927650915,28800793
0,0,0,0,0,0,0,0,0,0,0,0,0.9160417218258049,-0.4483163056750662,-0.07358530444923692,-0.1826662519772353,3.258398933219782,3.2586550305670534,0.22528974119302525,-0.2551768130274788,-0.12827605346155802,0.328535917822828,3.259116084470282,3.2588167141457456,28801788
0,0,0,0,0,0,0,0,0,0,0,0,0.973181721351352,-1.2524210634733515,-0.01457551891511904,-0.5180959484691559,3.2589823316314614,3.2583525131168978,0.48171674987277385,-0.06150545615022852,-0.13721074309477127,0.3094977747795313,3.2592427562764588,3.259219152834314,28802782
0,0,0,0,0,0,0,0,0,0,0,0,0.9494677364191694,-0.6424546173160812,0.0006549955195183181,-0.532729689208232,3.258634574250528,3.258636934594742,0.687368427201322,-0.21804191089176067,-0.11929100981843588,0.7114620341613332,3.25942056887395,3.2596503090441593,28803777
0,0,0,0,0,0,0,0,0,0,0,0,0.985010192991518,-1.0183705113375796,-0.09108961714382376,-0.595588802765465,3.2589398454356004,3.258810026503804,1.1455533320371307,-0.2506894052850491,-0.1247622877076015,0.876470944460743,3.259142048256641,3.2593355964822286,28804771
0,0,0,0,0,0,0,0,0,0,0,0,0.7051764375181719,-0.6806194163107177,-0.058319384851382355,-0.19467450316840446,3.2588887046442867,3.258883590565156,1.0464153345126312,0.1194294833456854,-0.13341727655139882,1.0170133134142534,3.2592419694950543,3.258959908361424,28805765
0,0,0,0,0,0,0,0,0,0,0,0,0.3380626604631734,-1.6752464384134338,1.8449685627184584,-2.1504301488912283,3.2587018440606403,3.258460302169359,1.961165554662413,0.14231695441209727,-0.12753136486188946,1.0690093361150426,3.2591778468105606,3.258837563852973,28806760
0,0,0,0,0,0,0,0,0,0,0,0,0.6684073887356983,-0.5814629294232045,-0.6889506446064286,-0.6223499920785418,3.258641261892469,3.25896580922196,0.7479879674897155,-0.08511912645329552,-0.12355536503259718,0.8336507598937464,3.2591404746938313,3.258922929635397,28807754
0,0,0,0,0,0,0,0,0,0,0,0,0.6856430155805368,-1.3945960038418772,-0.1870092853318793,-0.5973146077769527,3.259085793386196,3.259080679307065,0.8894115316166319,-0.19926143875854477,-0.13014977337715308,-0.0547989314554848,3.259585399578261,3.25911411751677,28808749
0,0,0,0,0,0,0,0,0,0,0,0,0.7623077824482658,-0.867845853310329,-0.6928436389975118,-0.7091909896363008,3.258939452044898,3.2587183664701422,0.5239562897630082,-0.1441379599735689,-0.13314308323181667,0.26132550970620033,3.25933913699855,3.2592643927650915,28809743
0,0,0,0,0,0,0,0,0,0,0,0,0.4916180004618168,-1.0499896824347592,-0.7623990490912258,-0.7447421008041025,3.2586943696372948,3.2586628983811017,0.8546924417844345,-0.18126735463945323,-0.11280793104266297,0.6662016470672664,3.25917115916862,3.259446139269607,28810738
0,0,0,0,0,0,0,0,0,0,0,0,0.6237866549237555,-1.302114570392915,-0.817575242230325,-0.4077148446696811,3.259049994832276,3.2589772175523297,1.0406667161782641,-0.18719732608763287,-0.10865490539728466,0.7105493677317342,3.2595515679778537,3.2594484996138213,28811732
0,0,0,0,0,0,0,0,0,0,0,0,0.8541098301541602,-0.9948032611373974,-0.7533730928150526,-0.8285339270274552,3.258760065884598,3.2585448811703777,0.7758207530761663,-0.14453921849003057,-0.10504987300036824,0.36828686812959527,3.259375722333875,3.259311993040084,28812726
0,0,0,0,0,0,0,0,0,0,0,0,0.551294189845823,-0.9002990126966253,-0.4917049398070502,-0.6877189383171722,3.2585960219616914,3.2585326860586026,0.5738822905876982,-0.19809346176307938,-0.13023985984800576,0.6740954249018937,3.259174306294239,3.2590283583436435,28813721
0,0,0,0,0,0,0,0,0,0,0,0,0.15007068515666547,-1.0390247033863906,-0.7058562166519423,-0.15403370309277808,3.2589032601002765,3.2586377213761475,1.1940430634073094,-0.33253788143847957,-0.11665175159594435,0.2851657730538575,3.2593194674634294,3.259195942782872,28814716
0,0,0,0,0,0,0,0,0,0,0,0,0.22794827555993505,-0.9878359184069536,1.0442556195563817,-1.5122021212818766,3.2587683270893484,3.258636934594742,1.226026514294924,-0.1974081751594752,-0.14503331721226181,-0.057461399729418716,3.259248657136995,3.259151489633499,28815710
0,0,0,0,0,0,0,0,0,0,0,0,0.29992185830138424,1.4080070862778529,-0.951111716164555,-0.4320779242608457,3.258879263267429,3.258485479174313,-0.11409510542095964,0.31402412820149994,-0.14805219746258227,-0.015302898323881426,3.2593064855702503,3.2591499160706894,28816705
0,0,0,0,0,0,0,0,0,0,0,0,1.1533456150705355,-0.6195651792961573,-0.16117925181141515,-0.4292702948177212,3.2590197037481907,3.258811600066614,-0.18970361825270868,-0.157975084540258,-0.13331774870368823,0.39437968663927153,3.259437484674154,3.2595617961361163,28817699
0,0,0,0,0,0,0,0,0,0,0,0,1.0122296824729065,-1.0103626501992522,-0.09998103379977152,-0.4390255974561688,3.258900506365359,3.2586621115996968,0.03328124681487642,-0.22390500592053006,-0.13189524792376134,-0.10592870782955978,3.2592443298392686,3.2590869735583032,28818694
0,0,0,0,0,0,0,0,0,0,0,0,0.9866655810672738,-0.6836654405195045,-0.1860265953572506,-0.11895505415857484,3.259166438480191,3.2588977526304426,-0.16864738090603124,-0.16429254583031483,-0.1384145186441563,0.08026193145059721,3.2592297743832797,3.2593395303892527,28819688
0,0,0,0,0,0,0,0,0,0,0,0,1.2361763878078924,-0.5480801878071055,0.02661445458107645,-0.2531020704629505,3.2587045977955578,3.2587341020982388,0.053356761140437255,-0.17595658015687227,-0.11781028721455182,-0.10905655730444876,3.259163684745274,3.2593973588225076,28820683
0,0,0,0,0,0,0,0,0,0,0,0,0.993537329857031,-0.7201634431080154,0.4845117908134211,0.016715957726950375,3.2585987756966084,3.258280916009058,0.032219878699765045,-0.2908227313545622,-0.1503684819183924,0.7966932769648166,3.2589957069153437,3.2588529060903673,28821678
0,0,0,0,0,0,0,0,0,0,0,0,1.2465925868263943,-0.4322093167554517,0.25963038916950093,-0.32687344871442897,3.2588257621319006,3.2587482641635255,0.38534192864202604,-0.145284693871104,-0.16136768595787118,0.5375412508894504,3.259079105744255,3.259231347946089,28822672
0,0,0,0,0,0,0,0,0,0,0,0,1.0982437727741925,-0.3017822029330972,0.37625460341627637,-0.40280336175004977,3.258599562478013,3.2583997200011874,0.9655047017937544,-0.247705143416541,-0.10644916372885271,0.7751842469196614,3.2591027091863998,3.2589386652634937,28823667
0,0,0,0,0,0,0,0,0,0,0,0,0.740483253059775,-0.7596748184770129,0.5307060874350175,-0.7762153239506869,3.258996100306046,3.258934337965767,0.6192858718974438,0.0190381430432967,-0.1354448122316375,0.4847647410350729,3.2594068001993657,3.2593104194772744,28824661
0,0,0,0,0,0,0,0,0,0,0,0,0.9995872854694468,1.1297653829771737,-1.7255217701818668,-0.4188025616172029,3.2591821741082874,3.2589968870874504,1.3871030911330093,-0.02857904774892899,-0.10326859989984034,2.3541199867868405,3.2590688775859924,3.25916958560581,28825656
0,0,0,0,0,0,0,0,0,0,0,0,2.079419586589287,-0.7472444590621541,-0.4567010351063055,-0.7839466314252175,3.258684928260437,3.2585433076075683,0.15972331282178315,-0.058658094246160294,-0.12928077331552185,0.6166922469964321,3.2590669106324803,3.259062583334754,28826650
0,0,0,0,0,0,0,0,0,0,0,0,0.4154874581679652,-0.8743694513284506,-0.444760053725249,-0.7203337812821604,3.258882017002346,3.2588068793781853,0.6301957762474746,-0.17785705064023144,-0.11785434697322213,0.5082045326476732,3.259621591522883,3.2594028662923415,28827645
0,0,0,0,0,0,0,0,0,0,0,0,0.20994671701749765,-0.7650209981228111,-0.6396591829847316,-0.7206300044810776,3.2589732836453056,3.258894605504823,0.41874709352816264,-0.07549757665366848,-0.12030005697012626,0.4737399665999373,3.258937485091386,3.2589044402723832,28828639
0,0,0,0,0,0,0,0,0,0,0,0,0.5713909472693142,-1.156200844788652,-0.1627390459464843,-0.704508460105474,3.258673913320769,3.2585496018588067,0.868484326420346,-0.2349584978769419,-0.1350687307201303,0.6519172372719332,3.259145588772963,3.259134573833295,28829696
0,0,0,0,0,0,0,0,0,0,0,0,0.6398798751687854,-1.3797750091284524,-0.4044795995330333,-0.9800581908295382,3.258955581063697,3.2586263130457773,1.0619613482906043,-0.18774413916398752,-0.14084882031069043,0.5511376203462625,3.2593214344169414,3.2594304036415105,28830753
0,0,0,0,0,0,0,0,0,0,0,0,0.5662505109608782,-1.3402726817456103,-0.36806853628975583,-0.7930272690090261,3.2586876819953536,3.258756525368276,0.4255806834197859,-0.23228580144474523,-0.11966394420432379,0.7524596396040486,3.2590936612002444,3.2589748572081154,28831810
0,0,0,0,0,0,0,0,0,0,0,0,0.741350286167894,-0.9691825114706172,-0.6247351199072742,-0.7661185581825445,3.258620412185241,3.2584095547687477,0.8942242734699575,-0.13847785454724487,-0.14420365622087195,0.716687836252193,3.259088547121113,3.2592242669134457,28832866
0,0,0,0,0,0,0,0,0,0,0,0,0.37252211243177796,-0.9963221426394155,-0.9687462411816408,-0.03724977222082284,3.2592124651923733,3.258582253287107,0.7194671415647437,-0.2243518977584717,-0.11345348518532337,0.5112021698000633,3.2592234801320408,3.259149522679987,28833923
0,0,0,0,0,0,0,0,0,0,0,0,-0.006769860597832274,-0.8980118391527937,-0.2523471537050192,-0.5685809574819752,3.259056289083515,3.25906848419529,0.5109716428484491,-0.08692833029369476,-0.1404491353570384,0.8472140845315557,3.2591652583080837,3.2590244244366193,28834980
0,0,0,0,0,0,0,0,0,0,0,0,0.37659527976456636,-1.0603728366342589,-0.8608431054166681,-0.007229734328953543,3.2587474773821206,3.258996493696748,1.400067281731043,-0.31599934291831766,-0.13791294549857921,1.055656868893727,3.259206564331837,3.259024031045917,28836037
0,0,0,0,0,0,0,0,0,0,0,0,0.4532561127252713,-0.4650464254673034,-0.23914535512272775,-0.8491692363225504,3.2587852428895525,3.258873362406893,0.2232633856848938,-0.2239565401025462,-0.14438854985100627,0.00585758755893559,3.2592994045376065,3.259493739544599,28837093
0,0,0,0,0,0,0,0,0,0,0,0,0.9321077981123683,-0.6313908972014066,-0.04446455770308467,-0.48192564033575536,3.2587203334236543,3.25857949955219,-0.2109577311227001,-0.24980702993953585,-0.1315939106457127,-0.1001474380668924,3.2591333936611884,3.2588643144207374,28838150
0,0,0,0,0,0,0,0,0,0,0,0,0.7366335316459574,-0.640837781529162,0.03346338671009382,-0.5712040866856678,3.25843276482019,3.2585582564542594,-0.24126651779014086,-0.08291889225469735,-0.15213087226520444,-0.29628260091335784,3.259228594211172,3.2591353606147004,28839207
0,0,0,0,0,0,0,0,0,0,0,0,0.8256153614062501,-0.5355322045722252,0.18169969102140557,-0.5710227335718552,3.25881750092715,3.259010655762035,-0.1556226081398258,-0.24015007497669158,-0.12298730885831223,0.019121935262910755,3.2590141962783568,3.259385163710733,28840264
0,0,0,0,0,0,0,0,0,0,0,0,1.2644513445438557,-0.7148188370250269,-0.17468238767175526,-0.40656260330231225,3.2591908287037406,3.258769507261456,0.007518089713822568,-0.07834257821352222,-0.13826345661442954,-0.018590464423950247,3.2593088459144646,3.2593713950361485,28841320
0,0,0,0,0,0,0,0,0,0,0,0,1.0897339450995855,-0.5825734713761176,-0.35854218704011287,-0.6905777085516105,3.2586971233722117,3.258592874836072,0.3268305691278659,-0.15429688147269266,-0.08946963423128536,0.3100406539488618,3.2595724176850815,3.2593104194772744,28842377
0,0,0,0,0,0,0,0,0,0,0,0,1.5579908320892848,-1.172096976291773,0.06635557012028337,-0.5930179945251934,3.259002001166582,3.2588576267787963,0.4065948613399102,-0.21683105430973224,-0.09701998198270582,0.38070385226057196,3.2592439364485664,3.258959514970721,28843434
0,0,0,0,0,0,0,0,0,0,0,0,0.07018758895249234,-0.6683873258098751,-0.21600808096028337,-0.6740895240413575,3.259014589669059,3.258824188569091,0.26682865224226143,-0.13050225144651548,-0.11525442782097194,0.25513668717583265,3.2592659663279013,3.2593568395801586,28844491
0,0,0,0,0,0,0,0,0,0,0,0,1.0390502737820475,-1.274511918367376,0.5974762913556446,-0.5939951770299884,3.258808059550292,3.258531112495793,0.903802550292319,-0.3229863551838821,-0.12773710819925166,0.29496592223238016,3.2595885467038803,3.2595810722805347,28845547
0,0,0,0,0,0,0,0,0,0,0,0,0.8047412639547901,-1.2313880361781162,0.3356460613782479,-1.5147682088337193,3.258880050048834,3.2588576267787963,0.012664820273497137,-0.3174210569168397,-0.12223003175616642,0.10471509751261442,3.259090514074625,3.2589603017521265,28846604
0,0,0,0,0,0,0,0,0,0,0,0,1.1129081979880568,-0.8039792661642153,-0.49872302993810536,-0.47780408594657015,3.2586691926323406,3.258679027399901,0.8271015914799679,-0.17408482719478932,-0.12912145008104442,0.6611764742346374,3.2591542433684157,3.2592565249510432,28847660
0,0,0,0,0,0,0,0,0,0,0,0,0.7677574238487987,-0.9999653339344661,-0.5327729621854975,-0.22850453001314758,3.2590429137996333,3.258747083991418,1.2286075506934584,-0.2730481592474173,-0.1396769094082009,0.765248377948806,3.259384376929328,3.259458727772084,28848716
0,0,0,0,0,0,0,0,0,0,0,0,0.6225600627136304,-0.9157879848227483,-0.7161964912648786,-0.8879355297011767,3.2587978313920294,3.258727807847,1.1841583352277678,-0.10175679943046562,-0.12746684878669368,0.6737323252835661,3.259459514553489,3.2592478703555905,28849772
0,0,0,0,0,0,0,0,0,0,0,0,0.7595658492524443,-1.0327489415107896,-0.5786812637664395,-0.6190781616065694,3.258614904715407,3.2586046765571446,1.0258461148555416,-0.156596250128299,-0.12801484203515553,0.6236466078336963,3.2592203330064216,3.259387130664245,28850828
0,0,0,0,0,0,0,0,0,0,0,0,0.6951555961555953,-0.73989238022475,-0.46692604624343464,-0.642298441207223,3.258963055487043,3.2587962578292196,0.595211934472553,-0.15465171988626955,-0.14638382749364703,0.26120591893266665,3.259202630424813,3.2593253683239656,28851884
0,0,0,0,0,0,0,0,0,0,0,0,0.5837485294042265,-1.0884664402564095,-0.5750974744674533,-0.7990099548113292,3.2592309545553864,3.2587773750755042,0.2692570530482594,-0.17827797869181378,-0.1349908393610524,0.27603320789733027,3.259468169148942,3.259175093075644,28852940
0,0,0,0,0,0,0,0,0,0,0,0,0.5997799873089775,-0.8909854878169879,-0.5058166510840238,-0.48704640710907066,3.258612937761895,3.258662504990399,0.7330446282678399,-0.16197350763958782,-0.14391018675687156,0.8064662821848728,3.259676272830519,3.2592167924900997,28853996
0,0,0,0,0,0,0,0,0,0,0,0,0.3635618524029079,-0.8614579750845401,-0.419308855451209,-0.42449610525323217,3.2589488934217563,3.2585968087430963,0.3750083416710307,-0.11421351602238607,-0.13762183637879327,0.20907850373727127,3.2589949201339383,3.259136540786807,28855053
0,0,0,0,0,0,0,0,0,0,0,0,-0.45400040793423746,1.3810476280507598,-1.1869297727262704,-0.632149747866362,3.2589736770360083,3.2586137245433,0.44758027167085074,-0.294292043959146,-0.11468912538160388,-0.745018654467899,3.2590944479816493,3.259259672076663,28856109
0,0,0,0,0,0,0,0,0,0,0,0,0.8182522676291784,-0.47104996097683444,-0.11948573821613051,-0.48609440160923023,3.2586019228222276,3.2585362265749245,-1.2387617515041531,-0.17643061595328044,-0.13674024781468483,0.3912903894532191,3.2592887829886417,3.259077532181445,28857165
0,0,0,0,0,0,0,0,0,0,0,0,0.9177116653575498,-0.6169542452042396,-0.08515610517932239,-0.814614977194664,3.2587722609963725,3.258859987123011,-0.05442835741381137,-0.22833812574602672,-0.10357701821053245,-0.0185833833913068,3.2592683266721156,3.2593509387196224,28858221
0,0,0,0,0,0,0,0,0,0,0,0,0.9240967898484218,-0.6835627655461747,0.21424096992504235,-0.5796726083365212,3.258983118412866,3.258791930531493,-0.08394210147167461,-0.22711507405222342,-0.11149754661292394,0.18967293377792047,3.259236068634518,3.2589174221655632,28859277
0,0,0,0,0,0,0,0,0,0,0,0,1.1368554636067705,-0.6217347290199672,-0.10315136947052114,-0.5904479730663268,3.258775408121992,3.2585267851980664,0.21001988768814653,-0.23726101365816754,-0.13197077893862474,-0.05941104405057955,3.259585399578261,3.2594925593724917,28860333
0,0,0,0,0,0,0,0,0,0,0,0,1.0241966276403223,-0.5669684489927828,-0.03661051232940106,-0.4735649077373633,3.258843464713509,3.2588749359697022,0.5388642238216668,-0.16836413960029356,-0.11939329140106336,0.6557291931783191,3.259109003437638,3.259309239305167,28861389
0,0,0,0,0,0,0,0,0,0,0,0,0.8156787056539899,-0.5078445801549649,-0.043739932029239176,-0.5216140415208389,3.258974070426711,3.2587238739399758,1.1298845803600048,-0.1214515115560903,-0.13472648080903063,0.5721309151805537,3.2590224574831073,3.258981938240759,28862445
0,0,0,0,0,0,0,0,0,0,0,0,0.7368290468250569,-0.6830446699910963,-0.034121922745933855,-0.4199886345849793,3.258681387744115,3.2587521980705496,0.4744492500363886,-0.20087552081054694,-0.13482994256376535,0.4060327060261614,3.2591872881874187,3.2593147467750008,28863503
0,0,0,0,0,0,0,0,0,0,0,0,0.7057374126598135,-0.39410903383601115,-0.09169268509062349,-0.7060761220545914,3.2588824103930483,3.2586636851625066,0.8772596928190819,-0.1939711205924893,-0.12655575591990423,0.4943013184429787,3.2591223787215204,3.259099168670078,28864560
0,0,0,0,0,0,0,0,0,0,0,0,0.1615238620667293,0.8680988035319809,-0.7862035138849632,-0.6831725219693806,3.258588154147643,3.2588033388618634,1.0186710618342234,-0.1435569219061043,-0.13942553274935873,0.24581922838917117,3.2591503094613916,3.259020490529595,28865618
0,0,0,0,0,0,0,0,0,0,0,0,0.42117549433416057,1.2104002488136587,-1.6191969179149768,0.6395309376157446,3.258906013835193,3.2586904357302706,0.030597142052309758,0.3114592208217646,-0.12781224582341263,0.07735713450397665,3.259374148771065,3.2595598291826042,28866675
0,0,0,0,0,0,0,0,0,0,0,0,0.8311672843894105,-0.156314582385371,-0.5100263249905496,-0.7099219095613848,3.259151096242797,3.2586723397579593,0.7177700540745322,-0.04367738290755545,-0.11733585802744126,0.6361965580220887,3.259416634966926,3.258913488258539,28867733
0,0,0,0,0,0,0,0,0,0,0,0,0.559726126161352,-0.7125619545652812,-0.29849935752145734,-0.9237565068908342,3.2586597512554825,3.258457548434442,1.0599259447963172,-0.08651054936773174,-0.11845112066878326,0.5098433983139273,3.2595169495960414,3.2591459821636652,28868790
0,0,0,0,0,0,0,0,0,0,0,0,0.09647120195283913,-1.0780042145257251,-0.36844697814547755,-1.026152959603424,3.2590405534554185,3.258930404058743,0.9540975515958727,-0.12816118337645332,-0.1353917044868117,0.7852212173010369,3.2591817807175847,3.2592392157601373,28869848
0,0,0,0,0,0,0,0,0,0,0,0,0.3578954527253452,-1.1734486667452653,-0.3673667272766503,-0.7744214623476818,3.25910113562359,3.2592667531093062,1.1033956174129982,-0.14590192388319062,-0.11869502290427957,0.7147236364750428,3.2593328427473116,3.258994133352534,28870905
0,0,0,0,0,0,0,0,0,0,0,0,0.4128025666239937,-1.222805431223563,-0.26206783796165445,-0.5685424051931387,3.2585157702583993,3.2586314271249086,0.9469362672491392,-0.08146885412560154,-0.10455577427813699,0.8785712574209281,3.259401686120234,3.259084613214089,28871962
0,0,0,0,0,0,0,0,0,0,0,0,0.5254236370830102,-0.9559004611850335,-0.5922469487484632,-0.6142579453298981,3.258725054112083,3.258461482341466,1.0197253489166913,-0.13769382687733492,-0.10072493561803526,0.7973986264942439,3.2590578626463245,3.2590999554514832,28873020
0,0,0,0,0,0,0,0,0,0,0,0,0.8958470101174129,-1.0712788070772656,-0.3081787357543392,-0.647125738516538,3.2587758015126944,3.2591585706661426,0.9150047439342431,-0.14915526499214946,-0.12712105835927226,0.8174938103549254,3.2592462967927807,3.2591412614752366,28874077
0,0,0,0,0,0,0,0,0,0,0,0,0.6572512218059565,-1.2004120588793825,-0.42227069404967954,-0.6752417654087264,3.2590889405118153,3.258523244681745,0.8068262346775811,-0.08226783064220317,-0.12830909828056075,0.8517160477299747,3.2595110487355052,3.259440238409071,28875135
0,0,0,0,0,0,0,0,0,0,0,0,1.8822694757305949,-1.4738764254899532,0.23996596812796211,0.3688085042009954,3.258666438897423,3.258607823682764,0.7780851099592577,0.22980035898689732,-0.12010100127470508,-0.07834965924616566,3.259290356551451,3.259179026982668,28876192
0,0,0,0,0,0,0,0,0,0,0,0,1.410515738787143,-1.2819611647082763,-0.3054891235219387,-0.46937647692876777,3.2586947630279974,3.2586510966600293,0.2790631030873183,0.04713804091668617,-0.1306257761270733,1.1778786394451426,3.2591593574475475,3.2590157698411666,28877250
0,0,0,0,0,0,0,0,0,0,0,0,0.7858191711687053,-0.602401149559158,-0.26564336605588984,-0.49715379442617824,3.258763999791622,3.258961088533531,0.02870139225737956,-0.33511144341366805,-0.11947314971365329,-0.10658173639556602,3.2595818590619396,3.2594008993388295,28878307
0,0,0,0,0,0,0,0,0,0,0,0,0.84603627276853,-0.5157721895899999,-0.26456665570338433,-0.36112243665724236,3.2591270994099495,3.258727807847,-0.3413439323120036,-0.005512190522216621,-0.1158315319814124,-0.22772128912464248,3.2593564461894564,3.2595106553448026,28879364
0,0,0,0,0,0,0,0,0,0,0,0,0.831155482668338,-0.5538925354352635,0.012411083270440491,-0.7875111445797854,3.2584626625135735,3.2588234017876863,0.02256056339270632,-0.15196171426316668,-0.13951207870388968,0.33734393564986415,3.2590405534554185,3.2589988540409625,28880359
0,0,0,0,0,0,0,0,0,0,0,0,0.8153986114738716,-0.5499397456574137,-0.10524027410033632,-0.18197860502941668,3.2586027096036325,3.258598382305906,0.1286155496377408,-0.2679380140230672,-0.12025481703934872,0.3084694514834227,3.2590669106324803,3.259088153730411,28881354
0,0,0,0,0,0,0,0,0,0,0,0,1.2155560273594888,-0.6850454551035707,0.17658915240635303,-0.21085348258656056,3.25881907448996,3.258942599170518,0.09982013700248443,-0.2742747514575424,-0.12734568445035033,0.2498939692847692,3.2592514108719124,3.259585792968964,28882348
0,0,0,0,0,0,0,0,0,0,0,0,1.1294616853549104,-0.519003894210326,0.26394077109584463,-0.22608281684909068,3.2589292238866356,3.2585031817559216,0.31183844945889105,-0.21100651156979935,-0.1422532251183063,0.48384420679142554,3.2591967295642768,3.258938271872791,28883343
0,0,0,0,0,0,0,0,0,0,0,0,1.0148296016251566,-0.05233473209556724,-0.4505857766372891,-0.2924863806350685,3.258460302169359,3.258462269122871,0.47205743456571514,-0.15725911346186558,-0.13623002007365465,0.3844528656545717,3.2594752501815853,3.2591302465355687,28884337
0,0,0,0,0,0,0,0,0,0,0,0,0.9747627585843512,-0.7488416253139526,0.2870863064630397,-0.0812269188436173,3.258909554351515,3.2585326860586026,1.0336557070798524,-0.11182720802154637,-0.1331360021991732,0.4734154192704462,3.2594492863952262,3.259128672972759,28885332
0,0,0,0,0,0,0,0,0,0,0,0,1.5462996538042608,-1.848070448406988,0.7597011756540746,0.2980977056142933,3.2589178155562655,3.258856053215987,1.2013200046205526,-0.13401011633993581,-0.13912065495498835,1.4804381824062087,3.2592789482210813,3.2589709233010913,28886326
0,0,0,0,0,0,0,0,0,0,0,0,0.2057515985669611,-0.6062717206802035,0.2843490939556472,-0.9170995494245945,3.258710892046796,3.2586113641990853,2.2763474317011156,-0.31595056247121833,-0.13974968668814738,0.6485439119987383,3.2596542429511834,3.2592820953467,28887321
0,0,0,0,0,0,0,0,0,0,0,0,0.651120621099546,-0.4190433167270799,-0.5186274193081163,-0.7402066993959784,3.2589634488777453,3.2586632917718044,0.7928109041226987,-0.0718917574753472,-0.13967179532906954,0.5511281789694046,3.259040160064716,3.2592073511132416,28888316
0,0,0,0,0,0,0,0,0,0,0,0,0.943514161528845,-1.2554072922953714,-0.5573791572307536,-0.6523542943423145,3.25894456612403,3.2585468481238897,0.7434014252902775,-0.1255600840520959,-0.11504160345096628,0.6025612595750403,3.258966989394067,3.2591503094613916,28889310
0,0,0,0,0,0,0,0,0,0,0,0,0.5277949962371583,-0.8289422665765602,-0.41290445481591875,-0.7465139325277725,3.258564944096201,3.2584437797598573,0.7412078787336205,-0.1567433782510016,-0.12570327826777436,0.36234706191385524,3.2592419694950543,3.2595429133824005,28890305
0,0,0,0,0,0,0,0,0,0,0,0,0.4738642780618999,-0.9401907968748565,-0.7207857871992334,-0.6964164133568302,3.258708531702582,3.258849758964748,0.6180994055389649,-0.12524891200648688,-0.10542870824679235,0.5202415013601186,3.259498460233028,3.259330089012395,28891299
0,0,0,0,0,0,0,0,0,0,0,0,0.557802052235848,-1.3154076356181663,-0.7328770438286119,-0.7096776139351861,3.259134573833295,3.2591487358985822,0.5303370869561537,-0.234381000325799,-0.13072766431899838,0.5498354971212741,3.259230167773982,3.2590712379302067,28892294
0,0,0,0,0,0,0,0,0,0,0,0,0.5976352211994196,-0.9098300826346972,-0.519891777025673,-0.8254603654694992,3.2588151405829358,3.2584075878152357,0.7436496548235004,-0.12755457491333186,-0.13778155300397313,0.704238200692916,3.2594307970322127,3.259258098513853,28893288
0,0,0,0,0,0,0,0,0,0,0,0,0.9555310673154672,-1.0103992355345768,-0.39830611924005976,-0.89445125990525,3.258763213010217,3.2587809155918257,0.8356940312020815,-0.16195344471376474,-0.13819972732063857,0.7078003535032694,3.2597199391984866,3.2595000337958373,28894283
0,0,0,0,0,0,0,0,0,0,0,0,0.48602162432928375,-1.3527120891466247,0.7039695148431676,-1.4959200734996883,3.2587789486383136,3.2589052270537886,0.5554090565930672,-0.10074499854385835,-0.1265813263155611,1.268067785271142,3.259391064571269,3.2590598295998365,28895277
0,0,0,0,0,0,0,0,0,0,0,0,1.2333577434251004,-2.081336186091445,2.22636674956879,-1.0331659356553478,3.2588607739044155,3.2585362265749245,1.1389062093384514,-0.29402493167220733,-0.1563055343992155,1.6234518317522801,3.259343464296277,3.2591204117680084,28896334
0,0,0,0,0,0,0,0,0,0,0,0,0.8592140745179742,-0.41632852748972504,-0.37425578525731384,-0.11725875344976823,3.258996100306046,3.258493740379064,-0.47457159454483916,-0.3061071403154302,-0.13389957355255763,0.26804147577780196,3.2588387440250806,3.2592002700805986,28897391
0,0,0,0,0,0,0,0,0,0,0,0,1.0809259272725493,-0.7606445265584619,-0.21090029608014774,-0.5430679968676564,3.2586235593108603,3.2587817023732306,0.28314649857836943,-0.23677006206155563,-0.17197271251353174,0.5814841725211349,3.259406406808663,3.2590598295998365,28898448
0,0,0,0,0,0,0,0,0,0,0,0,0.9926144352691691,-0.7228746918290485,0.08811676360568566,-0.647770112487091,3.2589044402723832,3.258575959035868,0.2626272395404862,-0.15039523248615652,-0.14027171615024997,0.2512999476551947,3.259495706498111,3.25911411751677,28899504
0,0,0,0,0,0,0,0,0,0,0,0,0.9546132868067367,-0.5251891762243719,0.19401321339764754,-0.3274234089164029,3.2589622687056385,3.2586503098786244,0.17942707293356333,-0.058703334176937835,-0.09962776894900428,0.016224612739636032,3.2590637635068607,3.2591975163456812,28900561
0,0,0,0,0,0,0,0,0,0,0,0,1.189920328846017,-0.3396291422401836,-0.14452741676895817,-0.6911013115765228,3.258407194424533,3.2587828825453378,-0.08179379484579502,-0.23115677012881874,-0.11430556944675081,0.021125867501004633,3.2593961786504004,3.2594134878413064,28901618
0,0,0,0,0,0,0,0,0,0,0,0,1.0176797172641416,-0.7044738417236616,-0.07317027725819078,-0.27240299849545935,3.2587978313920294,3.2587313483633213,0.1565226860669477,-0.15162851233822255,-0.1276588234494714,0.6523428860119445,3.2594382714555588,3.2592478703555905,28902675
0,0,0,0,0,0,0,0,0,0,0,0,0.90075455913002,-0.9350503605664207,-0.3546633547143167,-0.6644534187857412,3.259025604608727,3.259145588772963,0.6085549603170108,-0.17138341324131645,-0.11826189974092242,0.6316288985763667,3.2592124651923733,3.2590842198233867,28903731
0,0,0,0,0,0,0,0,0,0,0,0,0.3805055833465556,-0.3993053316241898,-0.20846442085080394,-0.6035415892054545,3.258615691496812,3.258448893838989,0.7533723060336477,-0.07420292785202597,-0.10101014387728498,0.5665754516810717,3.2591798137640726,3.2589441727333273,28904788
0,0,0,0,0,0,0,0,0,0,0,0,0.11191572092958939,0.09390590118240132,-0.879759690732919,-1.0186175606986954,3.2586865018232465,3.258496494113981,1.704732645122128,-0.3196020149710196,-0.1315620459988172,0.7214443232350735,3.2592777680489737,3.2590102623713326,28905845
0,0,0,0,0,0,0,0,0,0,0,0,0.368849023443344,-0.24356470627363994,-0.3853521568002887,-0.4710649098235261,3.259047634488062,3.259171552559322,0.3244592099737179,-0.22627518490257081,-0.13445976191279432,0.16243456154281635,3.2591333936611884,3.2595208835030656,28906902
0,0,0,0,0,0,0,0,0,0,0,0,0.45412707974041455,-0.5828209141279356,0.09559984154699344,-0.6266202481532392,3.25888595090937,3.258676667055686,0.9856002790451381,-0.14819460489685593,-0.14234252480775414,0.495610129309908,3.259294683849178,3.2591798137640726,28907958
0,0,0,0,0,0,0,0,0,0,0,0,0.46932218901183476,-0.7026768329950371,0.07186972759601207,-1.076325616398527,3.2589461396868393,3.258761246056705,0.7336366812749721,-0.1640856223208454,-0.137243787913774,0.5881525383177445,3.2592262338669578,3.259236068634518,28909015
0,0,0,0,0,0,0,0,0,0,0,0,0.5770813437797241,-1.2951582426021389,-0.48297323977628226,-0.7103664410551119,3.259164078135976,3.25906848419529,0.8636802391624735,-0.12208133007065415,-0.10651643353896541,0.6397646116929783,3.2592663597186036,3.259245510011376,28910072
0,0,0,0,0,0,0,0,0,0,0,0,0.4898005354166669,-1.0001624226763752,-0.4860176904222596,-0.9509063662178953,3.258763213010217,3.2587588857124903,0.7964533086363444,-0.10315372981473563,-0.12978510019601586,0.8471342262189657,3.259447319441714,3.2591546367591184,28911129
0,0,0,0,0,0,0,0,0,0,0,0,0.686350332063476,-0.9437895350205344,-0.7262928636423186,-0.7060399301099693,3.2591137241260677,3.258523244681745,0.8938843839030723,-0.23833182315013685,-0.1408472467478808,0.934060982949851,3.259381229803709,3.259388310836352,28912185
0,0,0,0,0,0,0,0,0,0,0,0,0.5510369123264446,-1.0094704400861787,-0.45819473960336915,-0.32112679733357397,3.2587341020982388,3.258738036005263,1.0037127737656562,-0.1011926771632048,-0.1230160263795884,0.7694509708226884,3.2589359115285763,3.2592034172062174,28913242
0,0,0,0,0,0,0,0,0,0,0,0,0.6827586749504416,-1.2006402254867823,-0.24886171208163643,-0.4430531314674772,3.2587313483633213,3.2586483429251123,0.6564388700054729,-0.0902926075807342,-0.13332404295492684,0.8310657895881879,3.259228594211172,3.2591632913545716,28914299
0,0,0,0,0,0,0,0,0,0,0,0,0.7422794750069945,-0.2778231355933113,-0.6189176581999848,-0.2878778085562954,3.258822615006282,3.2585987756966084,0.8140532152716178,-0.1833468178924105,-0.08264076502809106,0.7387834118346466,3.2592958640212846,3.2594827246049314,28915356
