0,0,0,0,0,0,0,0,0,0,0,0,1.2356999916672695,-0.1317878522620025,-0.787925778380129,-1.7590728830185989,3.2587443302565013,3.2586377213761475,-0.5499605953646416,-1.176071795948958,-0.7448880487546978,-0.11622570946523063,3.259142048256641,3.2591593574475475,105085870
0,0,0,0,0,0,0,0,0,0,0,0,0.829245570808121,-0.18283580336997549,-0.8323934832088331,-1.4736824838736633,3.2586294601713965,3.258570058175332,-0.3227078345665734,-0.7641889767872068,-0.3326897302496112,-0.10277843508463323,3.2587518046798474,3.2588969658490377,105086927
0,0,0,0,0,0,0,0,0,0,0,0,1.3628631428317,0.07007743955581659,-0.7676040014748575,-1.3773226114896073,3.2589197825097775,3.2582915375580237,0.12025560382075355,-0.9588166664620239,-0.14473158654351073,0.1223791268323811,3.259120018377306,3.2591208051587106,105087984
0,0,0,0,0,0,0,0,0,0,0,0,0.6785139892714009,0.10828629830912331,0.8252990752815097,-0.93079426655701,3.2588407109785926,3.258695549809402,0.09434807233191397,-1.7295229470161135,-0.8172274848493915,1.0001167893548952,3.259288389597939,3.2593041252260355,105089041
0,0,0,0,0,0,0,0,0,0,0,0,-0.6824290135418193,2.307633400873351,-0.5536309306181586,1.5431057146913663,3.2586215923573483,3.2586086104641687,1.4194342994015574,-2.641371910735596,2.990801988935708,-0.7537700240337877,3.2591833542803945,3.259077532181445,105090098
0,0,0,0,0,0,0,0,0,0,0,0,0.5207450414592077,0.17982439754300086,0.6704250896483767,-0.5811450697356545,3.259021670701703,3.258769900652158,0.061410648990946885,0.46519198002719636,0.028597930502644836,0.20640384035156253,3.2593753289431726,3.258787603233767,105091154
0,0,0,0,0,0,0,0,0,0,0,0,0.43813614107801213,0.4622391894148814,-0.14455023342969814,-0.5251718670334656,3.258572025128844,3.2586971233722117,0.42283284936342824,-0.021724214759375422,0.17200339698831998,-0.010079456577236244,3.259096021544459,3.2592470835741856,105092211
0,0,0,0,0,0,0,0,0,0,0,0,0.7792086338053505,-0.33190294884478433,-0.7591606568289585,-0.6188775323483385,3.258824975350496,3.258826942304008,-0.10720801439380816,-0.43341348569553917,-0.5582080314407386,-0.4050177580139348,3.259271080407033,3.2591451953822608,105093268
0,0,0,0,0,0,0,0,0,0,0,0,0.8299304640210228,-0.4085803042149906,-0.9008835912804116,-0.9399614500953495,3.2590102623713326,3.2587891767965766,-0.5325542369549557,-0.8192680024228098,-0.2749537438099079,-0.27648836094002255,3.2590673040231826,3.2592687200628183,105094325
0,0,0,0,0,0,0,0,0,0,0,0,0.17955413813044285,-0.7066870578154394,-1.245926182976506,-0.4326617160632271,3.258818287708555,3.2583828042009833,-0.5041380529568259,-0.675865683062754,-0.22016189338706652,-0.3124847903829563,3.2589858721477833,3.2589917730083195,105095382
0,0,0,0,0,0,0,0,0,0,0,0,0.5414299179828069,-1.0063996322631397,-1.8493827997902392,-0.6260954649562198,3.258799011564137,3.2588930319420135,-0.1719251122385397,-0.17933580629060342,0.21136174337407865,0.14939287297640716,3.2593088459144646,3.259173126122132,105096438
0,0,0,0,0,0,0,0,0,0,0,0,0.7702798450326734,-0.48604876828775023,-0.79782506201566,-0.6047048455124909,3.2588717888440835,3.258674700102174,0.06096297037160043,-0.33954574341127197,-0.1166651268798264,0.5884342060606725,3.258850939136855,3.259298617756202,105097495
0,0,0,0,0,0,0,0,0,0,0,0,0.4065527685347519,0.32061106212270996,-0.47058575994798657,-1.002771389814781,3.2587561319775737,3.258542520826163,0.19560841269593388,-0.21567802616095855,-0.02746575206109906,0.1595895599829626,3.2595405530381862,3.2593678545198266,105098552
0,0,0,0,0,0,0,0,0,0,0,0,0.7894214498307048,-0.06642520027461056,0.2675764879675493,-0.03253065735467164,3.2591687988244056,3.2588556598252842,-0.10659943897717462,-0.4664858420474341,0.4103348267477544,-0.1507819355466289,3.2594496797859285,3.259046060925252,105099609
0,0,0,0,0,0,0,0,0,0,0,0,-0.08381031558636612,1.413068844445806,0.08873950108760607,0.4057726747718662,3.259009475589928,3.2588568399973914,-1.8804315543689196,-0.9116030945304744,2.3711581314990675,-2.5024066451080613,3.2591239522843303,3.2590614031626464,105100666
0,0,0,0,0,0,0,0,0,0,0,0,1.1678857288224374,0.2182000539541309,0.6446367555423683,0.18502738297312057,3.258797044610625,3.2585972021337986,-0.3611814452626044,-0.41974197861456614,-0.3244190841220717,0.41256613881184323,3.2595181297681486,3.2591404746938313,105101722
0,0,0,0,0,0,0,0,0,0,0,0,0.8761452169591446,0.8444324188747905,0.29645608621312214,0.08054674631914452,3.258701057279236,3.2590861867768988,-0.7432527236047654,-0.5291875993237017,0.3426126173272868,-0.03720807280636701,3.259303731835333,3.259088153730411,105102779
0,0,0,0,0,0,0,0,0,0,0,0,1.0172225972679374,0.524927571407267,0.6122123136773483,0.09939252130896106,3.258672733148662,3.258612937761895,-0.1169495483576713,0.25661544282620463,0.286203537726824,0.5550380891606913,3.2590433071903355,3.258963842268448,105103836
0,0,0,0,0,0,0,0,0,0,0,0,1.4337336580435822,0.6702150190132878,0.37077506432236007,-0.1937921278228912,3.2583371708795035,3.2583017657162863,0.12047865634902195,0.32927981964109176,0.5688445292525922,0.09427018097283614,3.259233314899601,3.2596648645001487,105104893
0,0,0,0,0,0,0,0,0,0,0,0,1.2086378584668467,0.19460408623267247,-0.48658850033146145,-0.47669118364944263,3.258913094867837,3.258797438001327,-0.9706195677065333,-1.216065468319114,-0.47541345064800383,-0.944817858316643,3.259171552559322,3.2591054629213168,105105949
0,0,0,0,0,0,0,0,0,0,0,0,0.6298436915688146,0.12757149071353563,-0.372817155458588,-0.49200076961526507,3.258791537140791,3.258491380034849,-0.930355635923819,-1.201818037249808,-0.9135322825351098,-0.7389089034687165,3.259210104848159,3.2590027879479866,105107006
0,0,0,0,0,0,0,0,0,0,0,0,-0.17084289441620043,-0.01568920799365139,-0.2736134616867854,-1.0496313035048608,3.258752984851954,3.258839530806485,-0.9493941723578181,-1.5099731695620024,-1.0963342543046777,-0.37698158943433635,3.2592462967927807,3.2592069577225393,105108063
0,0,0,0,0,0,0,0,0,0,0,0,-0.14755455822402933,-0.07873360857172114,-0.6777590725134698,-1.6045915013064744,3.25877344116848,3.2589728902546033,-0.6997704624856069,-1.5171077033409717,-0.49520415010501745,0.04087054024583581,3.2592242669134457,3.259200663471301,105109119
0,0,0,0,0,0,0,0,0,0,0,0,0.6038944606655193,0.3802549934691183,-1.6030812743999092,0.968837901215303,3.2591821741082874,3.258708925093284,-0.5770538064305551,-0.7327877441391639,0.47598150682228885,-1.152791327570835,3.259163684745274,3.258928043714528,105110176
0,0,0,0,0,0,0,0,0,0,0,0,0.41800201153779165,0.32380932853333094,0.023992898940193526,-1.6065482266602786,3.258682961306925,3.2588906715977988,0.40915111412419247,0.9001719474997457,-0.8308089054595119,0.7850095731031386,3.2590547155207057,3.2591149042981744,105111233
0,0,0,0,0,0,0,0,0,0,0,0,0.5224987772105666,0.009204949045771247,-0.2814203001761794,-1.1032583240578562,3.2587643931823242,3.258561010189177,0.544543605392409,-0.4142352955621833,0.6497323453107292,0.5911080826649764,3.2591227721122227,3.258940632217006,105112289
0,0,0,0,0,0,0,0,0,0,0,0,0.8178360602660251,0.17983462570126363,0.05443937235347895,0.13446526938262812,3.259107036484126,3.258559043235665,0.6963593717049803,-0.06909789670680722,0.8703482115683807,0.6506229818609931,3.2592494439184003,3.259444565706797,105113346
0,0,0,0,0,0,0,0,0,0,0,0,1.5535655800778365,-0.006537366692705952,-0.035675029239061976,-0.11069502958000059,3.25881907448996,3.2586927960744854,0.785666535576169,0.4476931748024433,0.23778619024588946,0.7085977564570614,3.259262819202282,3.259138901131022,105114403
0,0,0,0,0,0,0,0,0,0,0,0,0.8485016523005547,-0.46691896521079124,-0.8713403429198673,-1.1926583281348142,3.2588977526304426,3.2589886258827,0.8061795003628135,0.44391426371506015,0.8812282182250282,1.0689141355650587,3.2594563674278696,3.2591829608896923,105115459
0,0,0,0,0,0,0,0,0,0,0,0,0.8525563302703297,-0.5408256698638999,-0.8077931890241132,-1.1314530290905271,3.25918099393618,3.258758492321788,0.9195810579754183,-0.09017262341649811,0.6717287864361746,0.5783299658691842,3.2593257617146683,3.2591597508382497,105116516
0,0,0,0,0,0,0,0,0,0,0,0,1.1460257942707293,-0.9016459824616888,-1.0885789499973,-0.6993039011125446,3.2586227725294554,3.2586833546976273,0.11236379293963825,-1.3365932985059377,-0.4664547641819434,-0.6627708867515191,3.2590279649529412,3.259235675243816,105117573
0,0,0,0,0,0,0,0,0,0,0,0,-0.05428437641672807,-0.8062628991917251,-0.6634813503600776,-0.9829743961065287,3.2592348884624105,3.258790750359386,-0.8005831242302803,-1.0172863265617282,-0.8209151292938147,-0.29101195228242305,3.2596054625040844,3.2593875240549472,105118629
0,0,0,0,0,0,0,0,0,0,0,0,-0.050925606599522416,-0.7665233572153278,-0.9659331042686824,-0.07424266031296972,3.258913488258539,3.258347399037766,-0.37180142066495664,-1.1742547242945105,0.15849081975112198,-0.4629425719907965,3.2591908287037406,3.258879263267429,105119686
0,0,0,0,0,0,0,0,0,0,0,0,-0.4242348938268296,-0.34828885177240987,-1.5165404339480917,0.17321936764947982,3.2587813089825284,3.258472890671836,-0.45493667780598135,1.5658495981513973,-0.7128369346662681,0.5363099379908964,3.2590641568975633,3.258797044610625,105120743
0,0,0,0,0,0,0,0,0,0,0,0,0.18926813474513707,-0.18799787616704416,-0.22796912526716295,-0.9970117565407463,3.2588340233366515,3.2589044402723832,0.5327898779857012,-2.2754862994535325,0.017646326738158077,-0.6333271662386853,3.2592746209233545,3.2594390582369632,105121799
0,0,0,0,0,0,0,0,0,0,0,0,0.2662727911797513,0.3277463826830843,-0.7490253387719795,-1.6218243744163958,3.258347005647064,3.2587427566936915,-1.0840600709986772,-1.109382630513028,-1.3273741873948797,-1.2269726189342283,3.2590413402368235,3.2588796566581317,105122856
0,0,0,0,0,0,0,0,0,0,0,0,0.06323558845944267,0.24832866767986625,-0.5640451626831487,-2.081292126332775,3.259176666638454,3.2589815448500565,-1.3693257652909474,-1.8529551807588553,-1.4243056564695424,-0.7147566812940456,3.259184534452502,3.259081859479172,105123913
0,0,0,0,0,0,0,0,0,0,0,0,0.0032246235876826745,0.28677670798024035,-0.4933902255761892,-0.7994788765286059,3.2589842985849735,3.258760065884598,-1.4206203723693338,-1.862126298204219,-1.255750328987876,-0.8668482144890087,3.2592592786859607,3.259187681578121,105124969
0,0,0,0,0,0,0,0,0,0,0,0,0.060913403143096345,0.3002287030492667,-0.005307233966259236,-0.23609893752323835,3.258963842268448,3.258811993457316,-1.0537265007169843,-1.2294391786383603,-0.8203423524311009,-0.6009967447515422,3.25887611614181,3.2588568399973914,105126026
0,0,0,0,0,0,0,0,0,0,0,0,0.16224691417776513,0.33386006758929104,0.2916634072856196,-0.17401598382186695,3.258841104369295,3.2590059350736063,-0.5601978016135456,-1.4367454572612592,-1.0404043245797545,-0.39646701770627707,3.259292323504963,3.259257705123151,105127082
0,0,0,0,0,0,0,0,0,0,0,0,0.9910259236128239,0.3717333640734391,0.29147733348337806,-0.535335115830316,3.2588025520804584,3.2584248970061416,-0.6903806198097013,-1.7934686056934124,-0.41334033171419277,-0.3943454616481616,3.2591983031270866,3.259174306294239,105128139
0,0,0,0,0,0,0,0,0,0,0,0,1.3662600715470399,0.023939791195367717,-0.49253735453335695,-0.7681995949983114,3.258754558414764,3.258634574250528,-0.26941755645484405,-1.685561929412118,-0.34020231249359995,0.08968403216410066,3.259368247910529,3.2588568399973914,105129196
0,0,0,0,0,0,0,0,0,0,0,0,1.4132124320521868,-0.8103549492782293,0.8060776121708885,-2.660608716083612,3.2587647865730265,3.2587966512199222,0.44493078529009644,-1.125115504874647,-0.6174695870244011,0.4876360997719883,3.2592077445039442,3.2591821741082874,105130252
0,0,0,0,0,0,0,0,0,0,0,0,-0.0961828465679701,0.49015537383024377,-1.0249688535891597,-0.9246994644045191,3.2590326856413703,3.258727414456297,2.1015871526702825,-1.862465007598997,-0.29817638375477595,2.2698191129945653,3.2593438576869795,3.259318680682025,105131309
0,0,0,0,0,0,0,0,0,0,0,0,0.8820523717465844,-0.405100763452144,-0.9089256774098489,-0.7496744334309617,3.2588481854019387,3.2587793420290163,0.8171035667781312,-0.2143475788053964,0.7461260492951928,0.7362035556082196,3.2595362257404594,3.2589437793426246,105132366
0,0,0,0,0,0,0,0,0,0,0,0,0.6649943310015596,-0.41835330943504684,-0.8306464350994152,-0.14358799977159498,3.25887296901619,3.2588296960389247,0.4710310782231185,-0.04958650464850719,0.4940271251233965,-0.42177030107620966,3.2592860292537242,3.259309632695869,105133422
0,0,0,0,0,0,0,0,0,0,0,0,0.3425665906151045,0.2477578577706644,-0.4028470281180177,-0.5688134513871016,3.2590464543159547,3.2587781618569087,-0.2736075608262492,-0.6827181557080931,-0.21930508843721014,-0.31415591408680843,3.259048421269467,3.259206170941135,105134479
0,0,0,0,0,0,0,0,0,0,0,0,-0.505804455972249,-0.20986174462577636,-0.4795318579115698,-1.1006009698630534,3.2588289092575202,3.2589842985849735,0.07529930773965211,-0.5992815612890198,0.5756442875438079,0.4966962810392715,3.2597561311431087,3.259383196757221,105135535
0,0,0,0,0,0,0,0,0,0,0,0,0.018548765009494424,0.09348025244239001,-0.6818928220144297,-1.1558755106777563,3.258738036005263,3.258804912424673,0.4476278719458427,-0.15914502848923545,0.3173089405666519,0.7745497077166685,3.258983118412866,3.25914676894507,105136530
0,0,0,0,0,0,0,0,0,0,0,0,0.3516208710218514,-0.1078075418242862,-0.45857554180330534,-0.9066908248294383,3.2588910649885015,3.2587537716333594,-0.0892772661778052,-1.2099458825523712,-0.3900862205131317,0.41420461108739504,3.258784456108147,3.2589339445750642,105137524
0,0,0,0,0,0,0,0,0,0,0,0,-0.11598220062043674,-0.3462015207054044,-0.3169879337534825,-1.4023745182006977,3.2583312700189673,3.258752984851954,0.0792871092900168,-1.0978613970114464,0.21981885669456205,0.61690703831995,3.2594182085297354,3.2595354389590545,105138519
0,0,0,0,0,0,0,0,0,0,0,0,0.050978320953645816,-0.29684200249218967,-0.8298384105966581,0.20427284291658912,3.258997280478153,3.2586806009627103,0.30966260548384256,-0.4330912987102626,0.7711327160755057,0.9479689178429743,3.259143621819451,3.259053535348598,105139513
0,0,0,0,0,0,0,0,0,0,0,0,-0.49859911186684513,1.358084232578782,-0.6369097753655643,-1.1893695818626382,3.258854086262475,3.2589433859519223,1.2497035205010796,-0.3337688009463311,0.6139007465721066,2.0669199904108035,3.2590669106324803,3.258967776175472,105140508
0,0,0,0,0,0,0,0,0,0,0,0,0.17592235516576232,0.2099128854170901,-0.8202412510205807,-0.6547071641334491,3.2587628196195144,3.258490986644147,0.1355270308884419,-1.2564065046795014,-0.012155379313871778,-1.1521910133589521,3.2593068789609525,3.2591526698056064,105141502
0,0,0,0,0,0,0,0,0,0,0,0,0.7355552477306422,-0.4176601550173944,-0.7093255292565261,-1.0924141159551282,3.2590637635068607,3.2591727327314297,-0.5520231428173951,-1.177749607294751,-0.504993677734575,-0.5277190718315925,3.2592734407512474,3.258775408121992,105142497
0,0,0,0,0,0,0,0,0,0,0,0,0.5643893795477605,-0.04074740895598041,-0.382077965984102,-1.0646403389740395,3.258655423957756,3.258658571083375,-0.9545719807829833,-0.8071527489605842,-0.5684413037826185,-0.26501590788554047,3.259147162335773,3.2590928744188394,105143491
0,0,0,0,0,0,0,0,0,0,0,0,0.952999598145437,-0.2821303703940356,-0.5336407820750215,-0.6264951499098718,3.258786423061659,3.258541340654056,-0.7163727302995598,-0.2864883525953713,-0.0865333660284717,-0.2548723286238108,3.2593643140035047,3.2592199396157193,105144486
0,0,0,0,0,0,0,0,0,0,0,0,0.8184898756134361,-0.10090943585746716,-0.7448030763629766,-0.8252341658156115,3.259025997999429,3.258843858104212,0.0058568007775307625,-0.7680351576847025,0.0825943449252063,0.08613486124692693,3.259031505469263,3.2590747784465286,105145480
0,0,0,0,0,0,0,0,0,0,0,0,0.4890912519802155,-0.36168616553380073,-1.1477618274404797,-0.7238176493427335,3.2585401604819486,3.258586187194131,-0.6360195322060027,-0.7883368716641511,-0.4471082028279546,-0.4213525201502466,3.259142835038046,3.2594154547948184,105146475
0,0,0,0,0,0,0,0,0,0,0,0,1.4087875734314408,-0.47002675175985714,-1.1411485363422078,-1.1155049700146877,3.258738429395965,3.2587474773821206,-0.7764222474601563,-0.6926225534227554,-0.19485349593800258,-0.07228121427073649,3.25929665080269,3.2594878386840627,105147469
0,0,0,0,0,0,0,0,0,0,0,0,1.3298324858942612,-0.5729833928326836,-0.991416167189618,-1.604021084787975,3.2588769029232143,3.2588654945928446,-0.002950430268100532,-0.3127762928934446,-0.030806032515291272,0.1408956338042776,3.2592510174812097,3.258850939136855,105148464
0,0,0,0,0,0,0,0,0,0,0,0,0.23785227988389487,0.43423370531007116,-0.8164418836166719,-1.6172114750398965,3.258859987123011,3.258474857625348,0.2200430893949377,-1.4173902413118173,-0.5703453147822994,-0.4234418181707642,3.259302551663226,3.2592938970677725,105149458
0,0,0,0,0,0,0,0,0,0,0,0,1.9073626884654389,-0.04897478210625435,-2.0641280965957756,1.3820189096950184,3.258979184505842,3.2589248965889093,0.9089717041220312,-2.110983682988129,1.5426733783094142,-0.5289586459348972,3.259161717791762,3.259279735002486,105150453
0,0,0,0,0,0,0,0,0,0,0,0,0.602027035001163,-0.13589681814871052,0.4414587189505957,-0.19385743067949182,3.258824975350496,3.258697516762914,-1.0433079413542676,-0.9762552829093077,-0.11348180931589713,-0.3460390503453076,3.2593123864307865,3.2590692709766946,105151447
0,0,0,0,0,0,0,0,0,0,0,0,-0.21935111514939248,0.1281222376969144,0.16711237038521415,-0.8424989035724285,3.25874905094493,3.2586463759716002,0.062486179171345135,-0.28358788294647724,-0.10364428802064514,0.43824471691187816,3.259141654865939,3.259038979892609,105152504
0,0,0,0,0,0,0,0,0,0,0,0,0.09775326225200441,0.03714867081030259,-0.3870787485931812,-0.8559351630133584,3.258837563852973,3.2586487363158145,0.55226193097376,-0.1865309222377446,0.47647835927943694,0.5099527609291984,3.259108610046936,3.259058256037027,105153561
0,0,0,0,0,0,0,0,0,0,0,0,0.3200300240552454,-0.1268039854531271,-0.7046300178325198,-0.7330611506773412,3.258638901548254,3.2586357544226354,0.22222837474684415,-0.1944408290911709,0.42208147312181865,0.4775542828505376,3.2592699002349255,3.2593289088402875,105154618
0,0,0,0,0,0,0,0,0,0,0,0,-0.2248019367220326,-0.2728734937755458,-0.22602498841583588,-0.40822900631773545,3.2585370133563294,3.2588237951783885,0.44338790695523106,0.44948703640544846,1.0958767409177708,0.5558170027514698,3.2591392945217246,3.2591204117680084,105155674
0,0,0,0,0,0,0,0,0,0,0,0,0.5126526013198616,-0.577988109348787,-1.0097528946105114,-1.2729072776922317,3.2587242673306784,3.258826942304008,0.36467042740230887,-0.3386916921963325,0.21160367865606292,-0.7276303920305242,3.259088153730411,3.258647162753005,105156731
0,0,0,0,0,0,0,0,0,0,0,0,0.21894749628871635,-0.344208603406978,-0.7250816136695877,-0.965778501722634,3.258928043714528,3.2586274932178845,-0.8580594728063907,-0.77064766533943,0.05569310852207047,-0.37703627074197177,3.2591302465355687,3.2592518042626146,105157788
0,0,0,0,0,0,0,0,0,0,0,0,0.5194531463924821,-0.6475580748984902,-0.7707550610011888,-0.504003119945898,3.2587352822703455,3.258617658450324,-0.1692268454106862,-0.6835446695738636,0.13041373853847246,0.04438587956260199,3.259197122954979,3.259210104848159,105158844
0,0,0,0,0,0,0,0,0,0,0,0,0.6512315572776266,1.10627287701045,-1.4143497245728642,1.35097212206985,3.2587997983455415,3.258640081720362,-0.41414874960765236,-1.0335825364092035,0.471119984521864,0.28303831613520575,3.2594618748977036,3.259147555726475,105159901
0,0,0,0,0,0,0,0,0,0,0,0,1.5811143375771446,-0.3202774668070634,0.6349373143836634,-0.20933184734962548,3.258940238826303,3.25870499118626,-1.8149638670639834,1.0979538438265135,0.3940386169002791,-0.16454510266126426,3.2595818590619396,3.2591546367591184,105160958
0,0,0,0,0,0,0,0,0,0,0,0,0.29729204145575067,0.36175461551602067,0.18174965164061208,-0.31187267445000105,3.2587608526660024,3.258516557039804,0.24762449832254627,-0.880815944768899,-0.18082990417836955,-0.2361500783145521,3.259214038755183,3.25904409397174,105162014
0,0,0,0,0,0,0,0,0,0,0,0,0.3809017277838859,-0.07093267094286333,-0.09677844009142399,0.1602091503392637,3.258695943200104,3.258811993457316,-1.122197726034847,-1.0109086764942021,0.010140038745407908,0.04903733122793808,3.2592754077047594,3.259203023815515,105163071
0,0,0,0,0,0,0,0,0,0,0,0,0.5872410520602526,-0.23776298019444705,-0.3824520805420971,-0.7680103740704505,3.2589732836453056,3.2589437793426246,-0.49423837593059256,-0.4265165599008274,0.4174355289263163,0.6212296153580683,3.2593068789609525,3.2591149042981744,105164128
0,0,0,0,0,0,0,0,0,0,0,0,0.17174375912472714,-0.4745440571956702,-0.9912265528710548,-0.8637246923118463,3.258614904715407,3.258557469672855,-0.34520978274462016,-0.3020839336018483,0.2817664839943032,-0.1680388054893977,3.2591924022665504,3.2590385865019065,105165184
0,0,0,0,0,0,0,0,0,0,0,0,0.18065366514368833,-0.4361514849843365,-0.8673796853279692,-1.0975769755336018,3.259149522679987,3.2587966512199222,-0.7945485108552587,-1.2249336749236195,-0.5883409724642006,0.39174514910520897,3.2592053841597295,3.259338743607848,105166241
0,0,0,0,0,0,0,0,0,0,0,0,0.08409867097123515,0.04726038542513673,-0.7947943800442671,-1.1135270015629533,3.259077925572148,3.2587207268143565,-0.2904242265730174,-1.0533000651955682,-0.7845803838468055,-0.418488635836677,3.2590468477066574,3.2591483425078795,105167298
0,0,0,0,0,0,0,0,0,0,0,0,0.31483411965776914,-0.1377984688041769,-0.7832334140817421,-1.0337973277327213,3.2586058567292517,3.2585916946639646,-0.444603090834986,-1.7114592327426947,-1.3572219201590918,-0.6714789833401421,3.259050388222979,3.259282488737403,105168354
0,0,0,0,0,0,0,0,0,0,0,0,0.9037148241656809,-0.5565258927972189,-0.46652046042924644,-0.9361734910218109,3.2588694284998687,3.2587647865730265,-0.5533339206378365,-1.2643093305002844,-1.031949178212783,-0.04714708890284167,3.259053535348598,3.2592309545553864,105169438
0,0,0,0,0,0,0,0,0,0,0,0,0.8438513808073259,-1.6633475498375354,0.4138824241021185,-0.6433464340384524,3.2586589644740775,3.258481545267289,-0.12939210288430486,-1.1160954494590103,-0.06949286097203027,-0.4758855194908999,3.2591609310103573,3.2589292238866356,105170522
0,0,0,0,0,0,0,0,0,0,0,0,0.3001508116901888,-0.10338858406407643,-0.8492601095748078,-0.8276067051418667,3.2586731265393647,3.258782095763933,0.3617762520046534,0.8805708623612954,-0.9737836091260444,0.02245552807516194,3.2590822528698746,3.259162111182464,105171606
0,0,0,0,0,0,0,0,0,0,0,0,-0.014403607178164383,-0.243755107373608,-0.8018301727569308,-0.8520205321336426,3.258500034630303,3.259170372387215,0.30311855114919556,-0.8063982255933554,-0.07756602496695815,-0.3302845394950556,3.2593163203378106,3.2593249749332633,105172690
0,0,0,0,0,0,0,0,0,0,0,0,-0.0019390227721956695,-0.37770739528028907,-0.8019788744424431,-1.0811084605584693,3.2592195462250166,3.2586904357302706,-0.4057888037906651,-1.0827245095639837,-0.16346209805752013,-0.42818571665116745,3.2594563674278696,3.259081072697767,105173774
0,0,0,0,0,0,0,0,0,0,0,0,-0.23061861164791722,-0.19723901715743744,-0.2601634335712711,-0.9725605574322411,3.259092481028137,3.2586562107391606,-0.1040542011325599,-0.6746792167042752,0.1623126104250682,0.015097154986519215,3.259008688808523,3.259168405433703,105174857
0,0,0,0,0,0,0,0,0,0,0,0,-0.15586218307759558,-0.5146376508042396,-1.013918508758367,-1.6629034117345107,3.258690042339568,3.2586872886046514,-0.025744274347338,-1.3245980292079482,-0.3262318284787927,0.46487569390245603,3.259234101681006,3.258906013835193,105175941
0,0,0,0,0,0,0,0,0,0,0,0,0.3594343971531864,-0.4461487229047683,-1.081670615872218,-1.5098819029190422,3.258979184505842,3.2586569975205655,-0.37884626136377586,-1.6264805467701609,-0.5002899051058178,-0.008823360064430245,3.25946620219543,3.2592219065692314,105177025
0,0,0,0,0,0,0,0,0,0,0,0,0.5245723396029878,-0.44590757440418893,-0.439722292390143,-1.2043813710667337,3.258647162753005,3.258799011564137,-0.4338879148826497,-1.3655661303479827,-0.6098094832670072,0.021141996519803585,3.258889491425692,3.2590956281537564,105178109
0,0,0,0,0,0,0,0,0,0,0,0,-0.2823117235078482,-0.2283318314947881,-0.30033806566453763,-1.0796957945461028,3.2585063288815412,3.258627886608587,-0.4445008092523585,-0.772660252172977,-0.08785122488155661,-0.2241091756950826,3.25923803558803,3.259020490529595,105179193
0,0,0,0,0,0,0,0,0,0,0,0,1.3098332893649685,-0.13218202974582072,-0.15319302716172065,-0.6646922069421061,3.2587533782426568,3.2588348101180564,-0.05085046897536146,-0.692172121068492,0.036916963686581095,-0.3329092422615578,3.259220726397124,3.2592199396157193,105180276
0,0,0,0,0,0,0,0,0,0,0,0,-1.1844093184959075,1.108864141567247,-0.6394054459816749,-0.35535336200634976,3.2586924026837827,3.25848980647204,-0.26662330229560166,0.4504949033850316,-1.97799834942798,0.8525846544009035,3.259208531285349,3.2591841410617994,105181360
0,0,0,0,0,0,0,0,0,0,0,0,0.6519530358258528,0.019048371201559448,-0.1188039921288481,-0.20962295646941143,3.2588989328025497,3.2588977526304426,-0.7561268277319464,-0.5500825464823897,0.1138331072131523,-1.1165313263572842,3.25946620219543,3.259435911111344,105182444
0,0,0,0,0,0,0,0,0,0,0,0,0.5885022626521901,-0.08612345291655693,0.18163438816480496,-0.05146061795480465,3.2590409468461212,3.2586168716689192,-0.9894381987378833,-0.44856374842688423,0.03552396720933523,0.13517179908416257,3.2595429133824005,3.259110577000448,105183528
0,0,0,0,0,0,0,0,0,0,0,0,0.1264995010494591,0.241136305467642,-0.015011789204095507,0.1309231794980978,3.2588717888440835,3.2587093184839864,-0.8442825370171709,-0.46486782608840777,0.14475912389267967,0.4680893025504711,3.259142048256641,3.259113330735365,105184612
0,0,0,0,0,0,0,0,0,0,0,0,-0.07302629626110747,-0.11387008593917916,-0.19103799951529496,0.2150344389718102,3.2591290663634616,3.258906013835193,-0.4772848102193844,-1.0317926087132225,-0.8541251723915544,-0.22001397848295906,3.2592639993743893,3.2594532203022504,105185695
0,0,0,0,0,0,0,0,0,0,0,0,0.5425727179733179,-0.21679643592791983,-0.2287893448816949,-0.19623233034996154,3.2584418128063453,3.25839853982908,-1.1464958961601133,-1.4077297458326512,-0.9631231144813436,-0.46315736331431423,3.2589803646779494,3.2590318988599654,105186662
0,0,0,0,0,0,0,0,0,0,0,0,0.7552668756564708,0.24992465375955744,-0.08233785418723275,-0.5867992743014424,3.2588843773465603,3.2585267851980664,-0.25761386842892986,-1.3640086965571279,-0.5847752791375255,-0.026868584974835512,3.2588808368302384,3.2589142750399436,105187629
0,0,0,0,0,0,0,0,0,0,0,0,1.105333853403789,0.043823330858150815,0.019859542829935888,-1.0308980382559345,3.2588702152812736,3.258902866709574,-0.5927662244756489,-1.5884022937300555,-0.703501773297998,0.025244274764570564,3.2592234801320408,3.2594933461538966,105188596
0,0,0,0,0,0,0,0,0,0,0,0,1.0424774935814731,-0.4087321530261222,-0.39540682976327296,-0.18073116311206378,3.258618051841027,3.258411128331557,-0.2680520973267671,-1.5766709895933853,-1.6425411155868905,0.3677923760166616,3.25923803558803,3.259256131560341,105189563
0,0,0,0,0,0,0,0,0,0,0,0,-0.18573076554903573,0.556468064363964,-0.49467071231254484,-0.6823070624240711,3.2588127802387215,3.2588863443000724,-0.4399618673279127,-1.6938498847305636,-0.49318094172250526,-0.47147403615403605,3.259617657615859,3.258871002062678,105190530
0,0,0,0,0,0,0,0,0,0,0,0,0.1770085068951257,-0.05790357087893139,-0.8133722559657401,-1.9279232535270754,3.2587160061259275,3.2589264701517187,1.3173324963250752,-1.7268156322021044,-1.8648351865810378,1.8431837491016088,3.2591849278432043,3.259208137894647,105191496
0,0,0,0,0,0,0,0,0,0,0,0,1.103998685359798,-0.27254894644605476,-1.5847673636397557,-2.204147255915076,3.258876509532512,3.258498461067493,-0.12209234501032173,-1.3748151391524241,-0.2169360896272766,-0.12109903348672789,3.2592474769648883,3.259130639926271,105192463
0,0,0,0,0,0,0,0,0,0,0,0,0.5340640704708183,-0.8828816393472718,-1.5741111962927814,-2.034831110814942,3.258966989394067,3.2590252112180247,-0.16108601821494317,-0.8247247248559861,-0.1902677405199695,0.1657256681592069,3.2594776105258,3.259162111182464,105193430
0,0,0,0,0,0,0,0,0,0,0,0,0.8004828096011649,-0.7896641718940939,-1.608740199654126,-1.2056457287842903,3.25863496764123,3.2586211989666456,0.2174671670755347,-0.917175080439458,-0.03943584435413412,0.30828259089977633,3.2590153764504644,3.2592219065692314,105194397
0,0,0,0,0,0,0,0,0,0,0,0,0.9092970382329271,-0.5186419747641057,-0.8086413393785166,-0.8183643839793662,3.2589544008915903,3.2585035751466243,0.0022155764359922925,-1.0108709109867704,0.026149860161526223,0.009572375961825365,3.259121591940116,3.258907980788705,105195364
0,0,0,0,0,0,0,0,0,0,0,0,-0.2588440011553766,-0.8800476527270856,-1.5746296852385622,-1.5917512287797009,3.258441026024941,3.2589252899796115,0.0920892229186562,-0.8778053257233293,0.15494440256886513,0.021246245055943136,3.2591817807175847,3.2591904353130383,105196330
0,0,0,0,0,0,0,0,0,0,0,0,0.2726374593540978,-0.45239143996136666,-1.0616741730778425,-1.1745088546882694,3.2590444873624427,3.2590031813386893,-0.3242817907669295,-1.597515189351462,-0.18306082285175593,-0.3746495693504297,3.2591994832991933,3.2590732048837188,105197297
0,0,0,0,0,0,0,0,0,0,0,0,0.005673480710206116,-0.2703734958617086,-0.18943453901225793,-0.8974323746481389,3.258981938240759,3.258759279103193,-0.1825580695340716,-0.7217263843687038,-0.05486148057716853,0.0691211067582496,3.2593753289431726,3.259345431249789,105198264
0,0,0,0,0,0,0,0,0,0,0,0,0.39491391121314895,-0.4503721654858786,-0.5811198927307001,-0.9860011441708975,3.25852245790034,3.2588576267787963,-0.029398480582056113,-0.8803777075264104,-0.3637211756373853,0.01327772298785722,3.2590720247116116,3.2592262338669578,105199231
0,0,0,0,0,0,0,0,0,0,0,0,1.5134015695335352,-0.18340818684198698,-1.2271390232013493,-0.023754897565233416,3.259121591940116,3.2589359115285763,0.37533918325176036,-1.3721935835115413,-0.7023644807773209,1.8529677692613324,3.259280128393188,3.2591322134890808,105200198
0,0,0,0,0,0,0,0,0,0,0,0,0.703452206069494,-0.498624682262502,0.029496041476254637,-0.9872631415442397,3.258999247431665,3.258736069051751,-0.38977622863962985,-2.8803130960837713,1.8779933187953612,-0.4105551255411059,3.2595189165495535,3.2592899631607484,105201164
0,0,0,0,0,0,0,0,0,0,0,0,0.6625265911253202,0.26933061710961065,-0.45075493463932687,-1.2976094600688766,3.2584905932534447,3.2585381935284365,-0.8375484749732584,-0.5691977941033595,0.049503892601000375,0.04971553679889879,3.258957548017209,3.2589386652634937,105202222
0,0,0,0,0,0,0,0,0,0,0,0,0.3399914550771063,0.21619769527884666,-0.4253639251427561,-1.2901385772393439,3.258879263267429,3.2585665176590104,-1.1406961370344324,-1.0886336313049352,-0.4840121846213561,-0.48815852262479337,3.25921521892729,3.2591377209589147,105203279
0,0,0,0,0,0,0,0,0,0,0,0,0.6945175164362808,0.023807611919356812,-0.24687823616006804,-1.2130682245574265,3.258776588294099,3.2585063288815412,-1.4770247312813678,-1.1661304195082687,-0.7417362024469617,-0.6367398305821216,3.259156997103333,3.259267146500009,105204337
0,0,0,0,0,0,0,0,0,0,0,0,0.06090671550115532,0.31792420362522644,0.1843798618769481,-0.9136672155460376,3.2587533782426568,3.2585704515660345,-0.9798662161667604,-1.2285107765806647,-0.3401822495677768,-0.2445112043036466,3.2591282795820566,3.2587769816848016,105205394
0,0,0,0,0,0,0,0,0,0,0,0,1.1341111700667346,-0.31487031160239115,0.005428004911900152,-0.2488782344911378,3.2589036534909788,3.2591522764149037,-0.9285668883999452,-0.5654889065610059,0.22487550078338395,-0.3050363308234609,3.259415061404116,3.259088153730411,105206451
0,0,0,0,0,0,0,0,0,0,0,0,0.9968292232548264,0.2779258105666412,0.5261872084363948,0.5657178599498105,3.2589768241616275,3.2586042831664424,-0.5898181545517629,-1.2672947725408996,-0.8052676207146192,-0.37005004525781215,3.2592462967927807,3.259309239305167,105207509
0,0,0,0,0,0,0,0,0,0,0,0,0.4992934464566048,0.2450694257103712,-0.1031615976287839,0.25212646152096524,3.258774621340587,3.2590212773110006,-0.31541476433453136,-1.163675661525209,-0.7843754272908481,-0.5138351337713163,3.2591802071547753,3.258935124747172,105208566
0,0,0,0,0,0,0,0,0,0,0,0,0.03693387948678487,0.9882182941696994,-0.6676760754199117,0.09122533693615638,3.258983118412866,3.2591227721122227,-0.5796348428290894,-1.1758530707184158,-0.2893829213837292,-0.74026728156415,3.25914676894507,3.259088547121113,105209623
0,0,0,0,0,0,0,0,0,0,0,0,0.984833167175432,-0.34025305989421123,-0.7099746239155083,0.01661367614432289,3.2588234017876863,3.2584587286065494,1.2379977867600662,-2.082257113725795,1.9893818961837166,-1.0698854172093173,3.259053535348598,3.2591038893585074,105210681
0,0,0,0,0,0,0,0,0,0,0,0,0.44389695452415395,-0.5513685406885792,-0.4925176849982363,-0.4495802700019204,3.2587077449211765,3.2586282799992894,-0.20429447940522186,-0.15228626159265773,-0.19065483697114433,-0.2219663765390368,3.259168405433703,3.258824975350496,105211738
0,0,0,0,0,0,0,0,0,0,0,0,0.23552694744192929,-0.42096070301064287,-1.3232042459492974,-1.0947512501181662,3.258502001583815,3.258952433938078,0.15381773159715315,-0.6477189716957773,-0.18318434753231377,0.0000932335964719768,3.2591149042981744,3.2591849278432043,105212796
0,0,0,0,0,0,0,0,0,0,0,0,0.06951017016293647,-0.6537362758798927,-0.9774952504033149,-1.3583627531960907,3.2591837476710968,3.2586833546976273,0.3316460647161084,-0.5971729871240838,0.5151545661872109,0.6836320023097994,3.259230167773982,3.2592179726622073,105213853
0,0,0,0,0,0,0,0,0,0,0,0,1.2341051857596859,-0.9952871317013658,-1.9046077733764377,-1.7085670242985516,3.2588056992060777,3.258548421686699,0.04970216151501673,-0.7426626375511453,0.08784060333259144,0.2978357074064859,3.2595617961361163,3.2590598295998365,105214910
0,0,0,0,0,0,0,0,0,0,0,0,-0.2216138984696744,-0.30246237545757,-0.6674557766265602,-1.1156816024400713,3.2591117571725556,3.2585228512910422,-0.2778821441986733,-1.0360479159412284,-0.32836361269517095,-0.12264505894721256,3.259109396828341,3.2591137241260677,105215968
0,0,0,0,0,0,0,0,0,0,0,0,0.16159467239316372,-0.9497399627852395,-1.2029136303560293,-2.2675394138740796,3.2588584135602012,3.2587982247827316,-0.5304283535991137,-1.0513913335074583,-0.5385695741855591,0.30594742369025035,3.2592431496671614,3.258948500031054,105217025
0,0,0,0,0,0,0,0,0,0,0,0,0.06570214816357471,-0.66206199670577,-1.9353496832072354,-1.597454213792588,3.2586762736649835,3.2587199400329516,0.22750846475463685,-0.6240140347497505,0.10288111005796313,0.591518782558296,3.2592490505276976,3.2592537712161267,105218082
0,0,0,0,0,0,0,0,0,0,0,0,0.4668851336103837,-1.0423150232213763,-1.1825603821945645,-1.293984364746137,3.258767540307944,3.2585617969705813,-0.08809945441477947,-0.3730716792430495,-0.2027138355629248,-0.33199618244125634,3.2590527485671936,3.2589528273287804,105219139
0,0,0,0,0,0,0,0,0,0,0,0,1.0066447146707433,-1.6896126734748689,1.497794580196688,-2.4124035730843034,3.25898705231989,3.2583678553542916,-0.9289669667442997,-0.9526203695083104,-0.11994128464952523,0.21547936385623978,3.259117264642389,3.258934337965767,105220196
0,0,0,0,0,0,0,0,0,0,0,0,0.17236570982524274,0.007452000075817117,-0.5547218030359511,-1.2398565578289695,3.2584186027549027,3.2586908291209733,-1.4254173785945627,-0.15455140525715413,1.2733046023016692,-0.6960560674734195,3.259173519512834,3.259280128393188,105221253
0,0,0,0,0,0,0,0,0,0,0,0,0.3307971275803002,0.1522728863087757,-0.44552244490652615,-1.0150735038606529,3.258533472840008,3.2586857150418416,-0.42825495341479225,-0.7308632768229576,0.031903592575024675,-0.5247304826653579,3.259138507740319,3.2591149042981744,105222309
0,0,0,0,0,0,0,0,0,0,0,0,0.36526720109787003,-0.11155144113915456,-0.12848573070594438,-1.2683600745630352,3.2593147467750008,3.258821434834174,-1.1673589786719059,-0.7726224866655452,-0.7985001204610014,-1.1819116809262848,3.2593631338313975,3.259248657136995,105223366
0,0,0,0,0,0,0,0,0,0,0,0,0.07978278157505768,-0.05912308205641294,-0.22392034815792417,-0.7173581740091054,3.258495707332576,3.2583717892613158,-1.3109985126255168,-1.2366972370978877,-0.7899686562977619,-0.7276441607051086,3.2594221424367595,3.2592813085652956,105224423
0,0,0,0,0,0,0,0,0,0,0,0,-0.04554716891612636,-0.17364816351511042,-0.22269611629201366,-0.34214998986124867,3.2590067218550107,3.259037012939097,-1.1087685476265605,-1.5161100645196515,-0.5817548253243953,-0.9412191201709652,3.259172339340727,3.2589441727333273,105225479
0,0,0,0,0,0,0,0,0,0,0,0,0.8124501481592832,0.13425165823121765,0.008206523443046027,-0.18765798660015898,3.2590834330419813,3.2586613248182923,-1.3083289633189397,-1.7547467654641586,-1.2130265251429706,-0.501252925545326,3.259018916966786,3.2593029450539284,105226536
0,0,0,0,0,0,0,0,0,0,0,0,0.7527550760215611,-0.2176229497936904,-0.3257046849375587,-0.4755739540545886,3.2582805226183558,3.258114118351235,-1.047097473990616,-1.5930376163765927,-0.9753784150336282,-0.4576376983687518,3.258996493696748,3.2589225362446945,105227593
0,0,0,0,0,0,0,0,0,0,0,0,0.546147852676851,0.43532575789997074,-0.9080869684323034,-1.2061606772137496,3.258848578792641,3.2587128590003083,-0.7917916288127457,-1.4036679868302329,-0.9060857899291265,-0.4328957835311631,3.2593013714911185,3.2589854787570807,105228649
0,0,0,0,0,0,0,0,0,0,0,0,0.5980620501115382,-0.14487871466621333,0.23622442915730824,-0.4912147749918431,3.2588273356947104,3.258962662096341,-0.5042631512001933,-0.5797811841703873,-0.47914043416266844,0.1702819192745589,3.259348578375408,3.2591573904940354,105229706
0,0,0,0,0,0,0,0,0,0,0,0,-1.3000673651775556,1.019162406821538,0.1955584520767274,-0.7280450258308679,3.2588186810992577,3.2585378001377343,0.603150952237958,-1.2151712912525285,0.8015304090416918,-1.302850211006428,3.2592163990993974,3.2591432284287487,105230763
0,0,0,0,0,0,0,0,0,0,0,0,0.8669296463644083,0.030617598368835253,0.28207922960272186,-0.3667239268689068,3.2588717888440835,3.2586927960744854,0.34070939310901077,0.09374618455722147,-0.36562558002776857,0.2509317339577357,3.259405620027258,3.2592573117324486,105231819
0,0,0,0,0,0,0,0,0,0,0,0,0.8107707632506803,0.15899829375723526,-0.18031967643733934,-0.7408188153289336,3.258845038276319,3.258972103473199,0.4040877823934295,-0.8940275781187508,0.7981212852145774,0.3126850262504847,3.259172339340727,3.2593580197522662,105232876
0,0,0,0,0,0,0,0,0,0,0,0,0.38974554416484164,0.008434690050445802,-0.6669459422762325,-0.17494359909815776,3.2589036534909788,3.2585358331842222,0.1421509435356788,-1.0435400418686915,0.4173202654505092,0.17146877902374016,3.2596625041559344,3.2592329215088984,105233933
0,0,0,0,0,0,0,0,0,0,0,0,-0.1327028790358161,0.013726975170013329,-0.6581992933987728,-0.7713683571062514,3.2591322134890808,3.2590098689806304,0.143242602734876,-0.9081471572097727,-0.1736273138078825,0.23934401742744651,3.2589528273287804,3.259230167773982,105234989
0,0,0,0,0,0,0,0,0,0,0,0,1.0900580990383744,-0.3941078536639039,-0.7264211090113054,0.029338291804586865,3.258502394974517,3.2585570762821527,-0.3598108720553961,-0.8625106886041984,-0.08094053041226033,0.0007403613019420268,3.2588757227511076,3.2588757227511076,105235984
0,0,0,0,0,0,0,0,0,0,0,0,1.0904778469178493,-0.5066443451219016,-1.1330875674590548,-0.8585964511151851,3.258583433459214,3.2585952351802865,-0.5095011484028277,-0.5304299271619233,0.067025121095791,-0.4227286008272887,3.2596093964111086,3.259257705123151,105236979
0,0,0,0,0,0,0,0,0,0,0,0,0.6944533937517874,-0.23667250116735708,-0.6398188996099113,-0.9685987196682357,3.2589768241616275,3.258992166399022,-0.16373471781429264,-0.01497992455720002,0.7058876879081354,0.5531470600541901,3.258989412664105,3.2590787123535527,105237973
0,0,0,0,0,0,0,0,0,0,0,0,0.25276532802168467,0.6553908771742436,-0.7470878895625935,-1.0453401977229353,3.2586168716689192,3.258673913320769,1.2594533156696932,1.2511606396628188,1.4325290957127923,1.4763862581713507,3.2590987752793756,3.2591322134890808,105238968
0,0,0,0,0,0,0,0,0,0,0,0,0.31707802022433523,-0.5882371173187634,0.36893242227225564,-2.744755774111244,3.2588076661595897,3.2585787127707855,0.05847123366251392,0.17357499284446154,0.3867164357562584,0.03270374926373353,3.2593572329708613,3.2590429137996333,105239963
0,0,0,0,0,0,0,0,0,0,0,0,-0.40951146000760313,1.3005343199413202,-1.4380444333606281,-1.5525663676937065,3.259003574729392,3.2588112066759116,-0.7227767375441477,0.7235580114791407,-1.6610163165350338,0.9399697113001002,3.259529931489221,3.2591522764149037,105240957
0,0,0,0,0,0,0,0,0,0,0,0,0.06804242945223204,-0.492303287065421,-0.3914398779201362,-2.096476220664527,3.2587266276748927,3.258859987123011,-1.2357468051608567,-0.2046123390927719,-1.3045162206311487,-0.7938183777115795,3.2591538499777135,3.258946533077542,105241952
0,0,0,0,0,0,0,0,0,0,0,0,0.32414685775600166,-0.42625377491161526,-0.3837321738877504,-1.5239054946786754,3.259012622715547,3.25870341762345,-1.2146437543205921,-1.2749080628047063,-0.695820426442674,-0.8019717934097996,3.259153063196309,3.2595374059125666,105242946
0,0,0,0,0,0,0,0,0,0,0,0,0.3190410398293781,-0.25680466375406547,-0.34822276213440445,-0.8338765661569316,3.2585063288815412,3.2588084529409946,-1.26703238094239,-0.8123061671621998,-0.4546121304764903,-0.3034250025063756,3.2590964149351613,3.2588592003416057,105243941
0,0,0,0,0,0,0,0,0,0,0,0,0.6547244733243552,0.09664586742471068,-0.23903717267956406,-0.018412651826459386,3.2586251328736697,3.2585012148024095,-0.7890811668731172,-0.8604925943008177,-0.24995730518785775,-0.0686541519944849,3.259054322130003,3.2592219065692314,105244936
0,0,0,0,0,0,0,0,0,0,0,0,0.7893789636348442,-0.2832751373380586,-0.7931779376480506,-0.4707824552991933,3.2589654158312573,3.258666832288126,-0.7089156161446114,-0.8159001846194487,-0.6518893065320618,-0.46707435453824453,3.258893425332716,3.259066517241778,105245930
0,0,0,0,0,0,0,0,0,0,0,0,1.4616718723382796,-0.8721644964414234,-1.0243524103584778,-0.5893142210619713,3.2589772175523297,3.258736069051751,-1.1134679929575912,-1.670918747296184,-0.9076864966972467,-0.5055357701225006,3.2595464538987224,3.258763999791622,105246925
0,0,0,0,0,0,0,0,0,0,0,0,0.9462855990273474,-0.009040511732162445,-0.6290340935032479,-0.16892157422561338,3.2585248182445543,3.259003574729392,-0.716725995150327,-1.5560632176474591,-0.8282636676148971,-0.5073103555810876,3.2589347313564696,3.2592624258115794,105247920
0,0,0,0,0,0,0,0,0,0,0,0,0.5408500600874495,-0.4341632883743391,0.4567923017492654,-0.5215794231390265,3.259103102577102,3.258666832288126,-0.8724634733752575,-1.7957589263628633,-1.024249735385148,-0.4575661012609125,3.259348578375408,3.25929507723988,105248914
0,0,0,0,0,0,0,0,0,0,0,0,1.3060968644734459,0.011505497873484833,-0.8005752564162321,-0.642650525885883,3.25888752447218,3.258996493696748,-0.2855784399006891,-1.7725602832508425,-0.6042190079950104,-0.704421914150943,3.259493739544599,3.259494132935301,105249909
0,0,0,0,0,0,0,0,0,0,0,0,0.3925268164309044,-0.7691315375723287,-0.42298823869088154,-1.3652423697998963,3.2586507032693266,3.2585468481238897,1.6828738907425274,-2.912124241843729,-0.42336707393730566,1.339904074657449,3.2591526698056064,3.2592309545553864,105250903
0,0,0,0,0,0,0,0,0,0,0,0,0.25460718329038423,-0.16263833792666646,-0.9945156925339332,-1.076076206693197,3.258696336590807,3.258714432563118,-0.19610526515308202,-1.601036036138062,-0.10767024846914391,-0.298242080002079,3.259164078135976,3.2590157698411666,105251960
0,0,0,0,0,0,0,0,0,0,0,0,1.0755848617058827,-0.3623769596072387,-1.0718799080705532,-0.4758666367371841,3.25901144254344,3.258588154147643,-0.08852116924776664,-1.0157194513940155,-0.39826638677911597,-0.12056362874074324,3.259236068634518,3.259197909736384,105253017
0,0,0,0,0,0,0,0,0,0,0,0,-0.21372012063504703,-0.42088556538648186,-0.6683082542786901,-0.5774436566166468,3.2584524343553105,3.2585791061614877,-0.11768676253399403,-1.1212583090374837,-0.06441615395738529,-0.3187503241002946,3.259145588772963,3.259165651698786,105254074
0,0,0,0,0,0,0,0,0,0,0,0,-0.6419943501942575,-0.3853592378329322,-0.3649505215824272,-1.2543876235947158,3.2588367770715685,3.2588949988955256,-0.5117202653551418,-1.2652857262236745,-0.3855390173839351,-0.4372403904486168,3.259547240680127,3.259144015210153,105255130
0,0,0,0,0,0,0,0,0,0,0,0,-0.0914633383111165,-0.4235979942796223,-0.8477494892775403,-0.9619248464017923,3.2587628196195144,3.25887611614181,-0.42480452356392423,-0.4946219318654456,-0.32168226500538166,-0.28553162640710195,3.259378476068792,3.259347398203301,105256187
0,0,0,0,0,0,0,0,0,0,0,0,0.38549141710894314,-0.2741398184466145,-0.4641498880565033,-0.5332186738513318,3.258893425332716,3.258557469672855,-0.45174352547449176,-0.7369482442078881,0.12565882511840165,0.45488317667045314,3.259085006604791,3.258843858104212,105257244
0,0,0,0,0,0,0,0,0,0,0,0,0.05358846826415876,-0.4495755493134915,-1.008292628323153,0.3754945725792137,3.259029538515751,3.2590008209944745,0.6963467832025031,0.1805824614265515,0.9784291599308442,0.5569483944116109,3.2591868947967164,3.2592679332814134,105258301
0,0,0,0,0,0,0,0,0,0,0,0,0.3420516421856453,-0.5376820847609144,-0.5611383987830161,0.682956943864458,3.2587073515304743,3.2586357544226354,-0.2498204052234179,0.10970014449359708,0.2957845682841025,0.2645237761168213,3.2594571542092745,3.2593572329708613,105259357
0,0,0,0,0,0,0,0,0,0,0,0,0.5956383699939692,-0.6070502408802796,-1.7849450093442212,1.441908710230435,3.258493740379064,3.2585055421001363,0.35867751344174303,-0.22360052151686208,-0.6732606498313725,0.926049581295202,3.258939452044898,3.259104676139912,105260414
0,0,0,0,0,0,0,0,0,0,0,0,0.30196276926550497,-0.40571366616650417,-0.7137594358634276,-0.770858916146626,3.258607036901359,3.2587482641635255,-1.0200518631996944,-1.2716527547422354,0.5196266316922463,0.2794726228085307,3.2590051482922013,3.2593147467750008,105261471
0,0,0,0,0,0,0,0,0,0,0,0,-0.03389336274783167,-0.34082780371043725,-0.8656574208328033,-2.115571405359674,3.2587038110141524,3.258745903819311,-1.1078727969971653,-1.2725178208968424,-0.5727603403044152,-0.16326579609701586,3.2591943692200624,3.2594170283576283,105262528
0,0,0,0,0,0,0,0,0,0,0,0,1.0913692702495181,-0.36384076641091895,-1.1411717463936502,-2.8107073319801485,3.258931977621552,3.258669979413745,-1.3848784667108613,-1.539525465908702,-0.7272975834962825,-0.9677698454582506,3.259330089012395,3.258935518137874,105263584
0,0,0,0,0,0,0,0,0,0,0,0,1.1261705787385201,-0.12861161573071667,0.02224821117499008,-0.5685443721466508,3.2587797354197185,3.258981938240759,-1.6723628845647436,-1.338568119832053,-0.8167404671598038,-0.8358860058648593,3.2591924022665504,3.2594008993388295,105264641
0,0,0,0,0,0,0,0,0,0,0,0,0.2131264940651052,0.20312610901905404,0.3994733094541203,-0.20956355447334699,3.258649129706517,3.2587372492238575,-0.9842706184709809,-1.7351999682426413,-1.3872203215623284,-1.0006230831889011,3.2590023945572844,3.259230167773982,105265698
0,0,0,0,0,0,0,0,0,0,0,0,0.5635955171102902,-0.009884334788839195,0.0018560173339864413,-0.3115921868791803,3.259025604608727,3.2587333153168334,-1.1152248758345693,-1.5835852245790034,-1.0888079033861044,-0.8640405850458842,3.259409947324985,3.2592077445039442,105266755
0,0,0,0,0,0,0,0,0,0,0,0,0.6271084460149343,-0.03835283975039002,-0.40000596046518805,-1.7932907930959217,3.258967776175472,3.258761246056705,-0.7632735566226907,-1.7610221339490573,-0.6536560241766005,-0.2787940238468675,3.2591507028520943,3.2595649432617355,105267811
0,0,0,0,0,0,0,0,0,0,0,0,0.4939472668108066,-0.8962419743826358,-0.3250516563715525,-1.9829259613664103,3.258529538932984,3.258627099827182,-0.14176424047520644,-1.3472974595186065,-0.4908504952014083,0.5462273175987383,3.2588253687411983,3.2590853999954934,105268868
0,0,0,0,0,0,0,0,0,0,0,0,1.1787248228460339,-0.6767063589938114,-0.35913227309373297,-0.7289777551862902,3.258948500031054,3.258651490050732,-0.35046233540324395,-1.3112133039490346,0.17281299505388675,-0.005325329938570254,3.2594524335208455,3.2588584135602012,105269925
0,0,0,0,0,0,0,0,0,0,0,0,0.6995796679949364,0.3537613098336827,0.2758609027696732,-0.8782533977333781,3.258557469672855,3.258623952701563,1.1243385582373806,-2.1965146895068512,2.4953708523953977,-1.8860220296409165,3.258792717312898,3.2591353606147004,105270981
0,0,0,0,0,0,0,0,0,0,0,0,0.4992399453210765,0.23999901294696485,-0.7190367721363033,-0.91891465412553,3.259085793386196,3.2586865018232465,-0.5783516023578169,-0.7591402005124331,-0.2550395196723365,-0.32994858383519454,3.259402472901639,3.259053535348598,105272038
0,0,0,0,0,0,0,0,0,0,0,0,0.6386867211683656,-0.4395515608252955,-0.8399697947466129,-0.5983645675616941,3.258979184505842,3.2591188382051985,-0.25072953113669527,-0.8388978050825363,-0.17847624760583014,-0.3825598695945584,3.259380049631601,3.2591813873268825,105273095
0,0,0,0,0,0,0,0,0,0,0,0,-0.24897304165041942,-0.1103814971901771,-0.15427681854686956,-0.7553534216110017,3.258472497281134,3.2583001921534764,-0.4563446231299189,-1.2516323151150126,-0.022134521261992602,-0.5169291516457977,3.259245510011376,3.259233708290304,105274151
0,0,0,0,0,0,0,0,0,0,0,0,0.04109595311831869,-0.2777952048534399,-0.4639201478862939,-0.6016301037824278,3.2590047549014987,3.258736069051751,-0.5485097704541408,-1.1913908232916384,-0.37863147004025816,-0.2612330628911332,3.258959514970721,3.2590763520093384,105275208
0,0,0,0,0,0,0,0,0,0,0,0,-0.036854807955599776,-0.147051804906345,-0.8214733507005394,-0.9002396107005609,3.2591994832991933,3.25916958560581,0.09579575011679531,-0.06301489627538874,0.6552327341118733,0.6233267811926342,3.2595114421262075,3.259193189047955,105276264
0,0,0,0,0,0,0,0,0,0,0,0,0.10190038703684652,-0.33466140445010717,-0.3083447466307576,-1.191832207659746,3.258620412185241,3.2583721826520184,0.3531263772399875,0.06560852117640033,0.24043843036156062,0.39029786471103006,3.2588501523554507,3.2589327644029575,105277321
0,0,0,0,0,0,0,0,0,0,0,0,0.6731701699698174,-0.23894747959941381,-0.7519084992299674,-1.0013685585699745,3.2584040472989138,3.2586562107391606,-0.057694287025247454,-0.5395479368624612,-0.024589672635754657,0.40011178256413726,3.2590853999954934,3.258967776175472,105278378
0,0,0,0,0,0,0,0,0,0,0,0,0.4367573066660531,-0.23098761212678098,-0.03432215861346228,-0.6229872850164515,3.2587443302565013,3.259062583334754,-0.200959313030161,-0.7574655362922592,-0.2938160412092258,-0.19339126269713194,3.2591707657779176,3.2591349672239978,105279434
0,0,0,0,0,0,0,0,0,0,0,0,-0.13058565027542712,1.4405845571261116,-0.6622091248284727,-0.42789421414067913,3.258865101202142,3.258557469672855,-0.6210931087843309,-1.6404215264822872,0.38010393143939153,-1.1062555678195438,3.2590197037481907,3.2591432284287487,105280491
0,0,0,0,0,0,0,0,0,0,0,0,-0.045770614835097166,0.16406555939502232,-0.21383656428296138,-0.8945157759804458,3.2591294597541642,3.2587396095680723,-2.6300835645298437,-0.2743703453982288,-0.7808392382668541,-0.5869271262797268,3.25955589527558,3.259073598274421,105281548
0,0,0,0,0,0,0,0,0,0,0,0,0.5904845584016511,0.16559034175757664,-0.0639322833934168,-0.38847764593096323,3.258678634009198,3.258762426228812,-1.247679918727865,-1.7185929797402595,0.18325673142155782,-0.947295826351145,3.259408373762175,3.259262032420877,105282604
0,0,0,0,0,0,0,0,0,0,0,0,0.6992692827307322,-0.03109556807226754,-0.13971349474352535,-0.6806158757943959,3.2589178155562655,3.2587427566936915,-1.300146830099443,-1.019259574325034,0.05182096383821533,-0.8207023049238091,3.25908972729322,3.259261639030175,105283661
0,0,0,0,0,0,0,0,0,0,0,0,0.32369406505752385,-0.10322768726678935,-0.5919141402142215,-0.929483882127271,3.258708531702582,3.258525211635257,-0.2558510846914154,-0.9206758643002348,-0.14235471991952894,0.20159699935877315,3.2594842981677408,3.2591947626107647,105284717
0,0,0,0,0,0,0,0,0,0,0,0,0.7350454133803145,-0.016171504994810224,-0.5624999240040688,-1.0578110763801427,3.258585007022024,3.2588643144207374,-0.7367782994244455,-1.2330198208117271,-0.4287734423605731,0.2310375727459875,3.25953465217765,3.2591479491171773,105285774
0,0,0,0,0,0,0,0,0,0,0,0,0.35747767179938217,-0.35719246354013245,-0.6633338288466726,-1.256840021233561,3.258763999791622,3.258736069051751,-0.03532255116969957,-0.9898056256539375,0.10097985279319915,0.648592299055135,3.2586904357302706,3.258706171358367,105286831
0,0,0,0,0,0,0,0,0,0,0,0,0.009392203020120027,-0.15241254000813245,-0.48080408344317477,-1.5086505900204883,3.2591813873268825,3.2585067222722435,0.02390005873442396,-0.6255419642379241,0.010809589720915521,0.11457071478017744,3.259067697413885,3.2593147467750008,105287888
0,0,0,0,0,0,0,0,0,0,0,0,0.3879489288269196,-0.056445664935787315,-0.5283032570246764,-1.1192366742177813,3.258494527160469,3.2586837480883295,0.0943284027967933,-0.26328931609264805,0.4141003625512555,-0.03327141204731608,3.259413881232009,3.2594764303536925,105288944
0,0,0,0,0,0,0,0,0,0,0,0,0.47289850388747495,0.2190049313312687,-0.028506663859684925,-1.809605098915708,3.2590409468461212,3.258732921926131,-0.2597031664494474,0.32507132590667315,-0.2537291352425975,0.8525020423533967,3.259126706019247,3.259106643093424,105290001
0,0,0,0,0,0,0,0,0,0,0,0,0.8625338986556409,0.19417883088336357,-1.0625372722789372,-0.029295805608726216,3.2587793420290163,3.25828288296257,0.5192698263251574,-1.004032207016016,0.5624987438319615,-0.42172624131753933,3.2591888617502285,3.2590448807531454,105291058
0,0,0,0,0,0,0,0,0,0,0,0,0.2776228997257828,-0.06971512671889385,-0.7156846899610387,-0.4521231475023207,3.2589693497382815,3.2586152981061094,-0.6801434135607973,-0.1776068541534965,-1.969640370564505,0.40250595837902525,3.2593584131429685,3.259208531285349,105292114
0,0,0,0,0,0,0,0,0,0,0,0,0.08925602307987487,-0.48811210252190856,-0.8978658912021984,-0.9721105184686801,3.2590283583436435,3.2588206480527697,-0.13323120274915728,-1.339565365262671,-0.16343338053624396,-0.04575173208138133,3.2591034959678047,3.2592868160351296,105293171
0,0,0,0,0,0,0,0,0,0,0,0,0.6711135233776001,-0.6194463753040284,-1.0302119648709254,-0.697437262229593,3.2585161636491016,3.258472890671836,0.007248617082669387,-1.0483641920523872,-0.03407274890813218,0.11005852342349569,3.2592769812675693,3.259003968120094,105294228
0,0,0,0,0,0,0,0,0,0,0,0,0.46528678718647803,-0.5048363214536097,-1.2545674031457188,-1.1292500411570119,3.258610970808383,3.258618445231729,-0.3589265297563707,-0.8736955730552164,-0.33494739949076163,-0.03015929820052364,3.2589083741794074,3.259259672076663,105295284
0,0,0,0,0,0,0,0,0,0,0,0,0.170013626815513,-1.0037650947290773,-0.8826231816557862,-0.363247926622382,3.258839530806485,3.258843464713509,-0.11681697569095797,-0.7860921843161802,0.07465257342488449,0.12011791707490886,3.2590130161062496,3.259042127018228,105296341
0,0,0,0,0,0,0,0,0,0,0,0,0.5092780958745594,-1.0591128062144286,-0.6303043520813408,-0.4520688595853877,3.258941025607708,3.2584229300526295,-0.3022353890222775,-1.4688540063922413,-0.4470259841711502,-0.3767117234124807,3.2595106553448026,3.2590732048837188,105297398
0,0,0,0,0,0,0,0,0,0,0,0,-0.2944816582777093,-0.6264853151423114,-0.5444405370283767,-0.21183066509135545,3.2587781618569087,3.2590102623713326,-0.36579788515542566,-1.8719701137507097,-0.3139843957405562,-0.08252078086385498,3.259376115724577,3.2591357540054027,105298454
0,0,0,0,0,0,0,0,0,0,0,0,0.15388893531428996,-0.5933661452968293,0.5716859902961242,-0.6033161763329716,3.259191222094443,3.258951647156673,0.07556091255675704,-0.6948310488261042,0.2544628089025985,0.4533202354097647,3.258952433938078,3.2594193887018426,105299511
0,0,0,0,0,0,0,0,0,0,0,0,-0.5168575545379583,0.35220269587072084,-1.9843339066903478,1.1764880033121112,3.2587053845769622,3.258791537140791,0.7010245920449009,-1.6420308878458603,0.3331208864594562,-0.26858435494713245,3.2595468472894247,3.2590728114930165,105300568
0,0,0,0,0,0,0,0,0,0,0,0,1.1849317413487126,-1.2200398945855968,-0.8556479878005966,-0.8476727780905697,3.259117264642389,3.258820254662067,0.2660359699768984,-0.885083840499382,-1.4623685672722537,-0.6900143730657545,3.2593336295287165,3.259437484674154,105301624
0,0,0,0,0,0,0,0,0,0,0,0,0.6184054635054425,-0.241306643641787,-0.37749771803590276,-0.8378285691533767,3.2589862655384856,3.2588088463316973,-0.9119111194504642,-1.9012289406334089,-0.9738870708807791,-1.7740154354590696,3.2588462184484266,3.258710892046796,105302619
0,0,0,0,0,0,0,0,0,0,0,0,0.5885966764207693,0.0008642793732022491,-0.3652180272600683,-0.6218676950773828,3.259009475589928,3.2584819386579915,-1.5029684547148292,-1.0599424672058184,-0.5379731938807003,-1.1848762732596723,3.259009475589928,3.259087760339708,105303613
0,0,0,0,0,0,0,0,0,0,0,0,0.7453093701969826,-0.015345777910444487,0.17937789909576166,-0.7800021028521184,3.2587883900151713,3.2591558169312256,-0.9625955775494072,-0.8162436147026556,0.02041304354823155,-0.6581304500258505,3.2594355177206418,3.2592034172062174,105304608
0,0,0,0,0,0,0,0,0,0,0,0,0.707493508755387,-0.5708933080307612,-0.659261448295289,-1.101797664379795,3.2588658879835473,3.258607036901359,-0.9530676547369545,-1.452626246526986,-0.6235899595725488,-1.013182868144854,3.258893425332716,3.258917028774861,105305602
0,0,0,0,0,0,0,0,0,0,0,0,1.1913302411234665,-0.547843759994955,-0.7380225942161791,-1.4123036995296119,3.2590700577580995,3.258971710082496,-1.6769926997414468,-1.6018066885240898,-0.577375206634427,-0.8085638414101411,3.259195942782872,3.259274227532652,105306596
0,0,0,0,0,0,0,0,0,0,0,0,0.7946397774982187,-0.5255463749821633,-0.7535036985282538,-1.0746777027461174,3.2590802859163626,3.258372969433423,-0.7484954414958288,-1.299240851311785,-0.7915611018611314,0.14639287547980256,3.259059042818432,3.2593316625752045,105307591
0,0,0,0,0,0,0,0,0,0,0,0,0.13504788101290235,-0.2056143052118188,-0.07333864847882371,-1.1206434393696116,3.2584933469883612,3.2588005851269464,-0.11835592011879921,-1.069718619551494,-0.32172947188967127,-0.2749533504192055,3.259309632695869,3.258859987123011,105308585
0,0,0,0,0,0,0,0,0,0,0,0,1.228706291759764,-0.009621943190329454,-0.7028534654204208,-0.12821979859111293,3.2588281224761153,3.258596415352394,-0.9434673480352578,-1.3513552846140007,-0.9044988518355908,-0.014904393542336646,3.259351725501028,3.259284062300212,105309579
0,0,0,0,0,0,0,0,0,0,0,0,1.9914554585761377,-1.5886910425056269,0.15989679812154747,-1.0102717769469949,3.259021670701703,3.2586884687767586,-0.2571457334930579,-1.3063163764853924,0.04612820698359096,0.3091413628031448,3.2589862655384856,3.2592022370341107,105310574
0,0,0,0,0,0,0,0,0,0,0,0,-0.05247320562281675,-0.048835915188302416,-0.599982190130018,-1.791214870359286,3.258406014252426,3.2581845352869667,0.9475082573304482,-0.9182510040105586,-0.11095152031797412,1.6006725431290318,3.2588973592397403,3.259217185880802,105311568
0,0,0,0,0,0,0,0,0,0,0,0,0.04766164394159841,0.024623897626864625,-0.7088302503621876,-1.5363700790846442,3.258644409018088,3.258816320755043,0.7098861110074652,-0.5958519811453796,0.1686351857942564,0.34726564255543263,3.2591109703911503,3.2590519617857883,105312563
0,0,0,0,0,0,0,0,0,0,0,0,0.287934456817443,-0.2879702553713626,-0.4700948083513746,-1.214496232807187,3.259141654865939,3.2586750934928768,-0.127494779526565,-0.7167200942897908,-0.1604754758447976,0.4647183376214907,3.259103102577102,3.2593949984782933,105313557
0,0,0,0,0,0,0,0,0,0,0,0,-0.2888105379117177,0.0014881970272299083,-0.2404317427196196,-1.4852898699390733,3.258704204404855,3.2583702156985064,0.09271589430760077,-0.43988830326656136,0.1613625718787398,0.3611806584811995,3.2592411827136494,3.2588828037837505,105314551
0,0,0,0,0,0,0,0,0,0,0,0,-0.564513691009723,-0.07035871390804217,-0.9745648830610374,-1.477994832753519,3.2588068793781853,3.259037012939097,0.3480205593133639,-0.2778506729424802,0.43686666928132406,0.26700253093272813,3.259368641301231,3.259311993040084,105315546
0,0,0,0,0,0,0,0,0,0,0,0,0.00887253390223192,-0.43524314585246393,-0.7149167913099279,-1.3341267388018057,3.2589186023376704,3.2589378784820884,-0.41142491238414197,-0.7474588569949694,-0.45836665134032384,-0.7243373184606217,3.2590409468461212,3.2593072723516547,105316540
0,0,0,0,0,0,0,0,0,0,0,0,0.46241542844956257,-0.2435316614546372,-0.8763383717940296,-0.8565645881372198,3.2587758015126944,3.2584075878152357,-0.6850470286663805,-1.2291634117559684,-0.18346876901015866,-0.36133250729233113,3.2592392157601373,3.258843858104212,105317534
0,0,0,0,0,0,0,0,0,0,0,0,0.5468166168709537,-0.8211849953156704,-0.6165282030735257,-1.2075792440866522,3.2588383506343783,3.258668799241638,-0.20278857979638334,-0.655368453904206,0.033771805020785924,-0.04319941320412316,3.259509081781993,3.2591117571725556,105318591
0,0,0,0,0,0,0,0,0,0,0,0,-0.21267881544575876,-0.6271847638112025,-0.02152279871973976,-0.5013768436165862,3.258697516762914,3.2585492084681045,-0.4669708927835098,-1.5782299969470497,0.10456324870148286,-0.5497532784644698,3.258972103473199,3.2590598295998365,105319648
0,0,0,0,0,0,0,0,0,0,0,0,-1.0382151053208237,0.5442462020213845,-1.1986386535929028,-0.8665358622712924,3.2589587281893166,3.25859248144537,0.021467724021401884,-1.540782349202913,-0.2775906416881849,0.13066826232293394,3.2590712379302067,3.259136540786807,105320704
0,0,0,0,0,0,0,0,0,0,0,0,0.6668708046520715,-0.36850834709505403,-0.912306870497092,0.03217778589460681,3.258826548913306,3.258976037380223,-0.12852192265056642,-2.6188314102687134,0.6722217049862986,-0.9154779929492465,3.259286422644427,3.259380443022304,105321761
0,0,0,0,0,0,0,0,0,0,0,0,0.6817362525148692,-0.5168984671710094,-0.2549120610847546,-0.028281644377904456,3.2588741491882978,3.2589205692911825,-1.2867129310027279,-1.5064153440493755,-0.7659812648274021,-1.081799254631907,3.259243543057864,3.259053141957896,105322818
0,0,0,0,0,0,0,0,0,0,0,0,1.0661505658806045,-0.2717660989482521,-0.23772836181263465,-0.22538179461738997,3.2591444086008554,3.2583926389685436,-1.187915216435816,-1.5584518859925132,-1.1968951459998067,-1.042618327452937,3.2592462967927807,3.259527177754304,105323874
0,0,0,0,0,0,0,0,0,0,0,0,1.5173889776931972,-0.4720672693332755,-0.5474283394132066,-0.7941956393951939,3.2588666747649517,3.2586609314275896,-1.7205843234758762,-1.8769830914715637,-0.796069359310789,-1.268948980444548,3.2593745421617673,3.2594540070836553,105324931
0,0,0,0,0,0,0,0,0,0,0,0,0.7198310279644761,-0.42050987726567707,-0.696710276211533,-0.9948307984865663,3.2586522768321364,3.258902079928169,-1.6158098239671974,-2.185919497718751,-1.056880707368935,-0.8424898555862731,3.2593293022309897,3.259105069530614,105325987
0,0,0,0,0,0,0,0,0,0,0,0,0.6022874596461605,0.0565715499605596,-0.2971775647613483,-0.8897856461746271,3.258847792011236,3.2583505461633857,-1.3111287249480157,-1.6402523684802495,-1.0352552336758651,-0.49216717388238596,3.2591330002704857,3.258992166399022,105327044
0,0,0,0,0,0,0,0,0,0,0,0,0.32971569653936583,0.17632046655660466,0.015407933641425803,-0.32794740533201755,3.258712465609606,3.2588572333880936,-1.136366872354373,-2.0420262267620832,-0.39358346385758686,-0.04384811447240287,3.2591042827492096,3.259176273247751,105328101
0,0,0,0,0,0,0,0,0,0,0,0,0.3992596983027098,-0.09307112611188008,0.14342670958360548,-0.8733352271718058,3.2586137245433,3.2588556598252842,-0.2593203972959992,-0.947641223387864,-0.5408036399845648,0.30847181182763717,3.2590661238510754,3.2593584131429685,105329157
0,0,0,0,0,0,0,0,0,0,0,0,-0.31587778519127185,0.24673779567930645,0.2915567984052656,-1.5254224092271815,3.2593324493566094,3.258786423061659,0.5133937494032084,-0.4583977292058145,0.20857378346607489,0.6281886968837614,3.259524424019387,3.259117264642389,105330214
0,0,0,0,0,0,0,0,0,0,0,0,-0.7234533695522988,1.3224615243031412,-0.6966225500848949,-0.5971517440261536,3.258990986226914,3.2585621903612836,1.3098698747002928,-1.0958547110384358,1.1736858813388207,-0.20738495676338156,3.2594815444328242,3.2593143533842985,105331271
0,0,0,0,0,0,0,0,0,0,0,0,0.5499511539877836,-0.019216742422192384,-0.5332344094794284,-0.8821825840690832,3.2588053058153754,3.258549995249509,-0.10759196371936365,-1.123401501584232,0.5259641559081263,0.06519192042254453,3.259442205362583,3.2589795778965445,105332327
0,0,0,0,0,0,0,0,0,0,0,0,-0.5435408524919572,0.0037887458549434967,-0.08394839572291322,-0.741803078866372,3.2589827250221637,3.258881230220941,-0.09625365689440452,-0.657971126791373,0.17950614446474844,0.36470347222131155,3.2591672252615957,3.2591487358985822,105333384
0,0,0,0,0,0,0,0,0,0,0,0,0.6564766355129046,-0.5625907972563263,-1.3372608825279335,-1.406902445185476,3.2587187598608445,3.2585543225472353,0.24610246969490882,-0.7380351827186563,0.22853049379950688,-0.136128525272432,3.2593013714911185,3.259469742711752,105334440
0,0,0,0,0,0,0,0,0,0,0,0,0.9623162701506937,-0.8639087991605757,-1.0979357478542027,-1.0870057805783486,3.258629853562099,3.2586943696372948,-0.3627766445608907,-0.44115423454692776,0.026097932588807653,0.1406119991078376,3.2592132519737778,3.2588556598252842,105335497
0,0,0,0,0,0,0,0,0,0,0,0,-0.21628660157759205,-0.8204477811393477,-0.9615719749417274,-0.165552576250145,3.2588918517699064,3.2588662813742495,-0.21146953242653993,-0.4001212239409952,0.19747151106256378,-0.06737327186742686,3.2593355964822286,3.2589878391012954,105336553
0,0,0,0,0,0,0,0,0,0,0,0,-0.1575643846469384,-0.7665827592113923,-0.9371144815819837,-0.12179651520210685,3.2586530636135413,3.258352119726195,-0.581338617961242,-0.5017442705326403,-0.5293260728509512,-0.2027500275075468,3.2590468477066574,3.2590118359341425,105337610
0,0,0,0,0,0,0,0,0,0,0,0,-0.1459510977209923,-0.7955520505371154,-0.7644938545815771,-1.3166818281032833,3.2587856362802547,3.2589272569331236,-0.5924098124992624,-0.34014920474877414,-0.027516106071007976,-0.036151031988982195,3.2590743850558264,3.259007508636416,105338666
0,0,0,0,0,0,0,0,0,0,0,0,-0.04123954072469958,-1.0715738501040757,-0.6750966042395358,-1.2422983339188498,3.2589036534909788,3.2589500735938635,-0.3443632059530265,-0.1425242713122691,0.27759890289293565,-0.2753479212937261,3.2593894910084593,3.2590574692556222,105339723
0,0,0,0,0,0,0,0,0,0,0,0,2.1680670342525286,-1.101868081315527,-0.9908197868847592,-0.8898611771894904,3.2587018440606403,3.258524424853852,-0.0199508094728958,-0.9286317978658434,0.7203326011100532,-0.8816637017325999,3.2591888617502285,3.259109003437638,105340779
0,0,0,0,0,0,0,0,0,0,0,0,0.5653169948240512,-0.14830200055861478,-0.3304230130223051,-1.3696825706580364,3.2589307974494455,3.2586286733899916,-1.5149413007427812,0.3129922643890696,-0.4502289712702002,0.06063527591649007,3.2594591211627866,3.25905864942773,105341836
0,0,0,0,0,0,0,0,0,0,0,0,0.1727760163278599,0.3855763895006644,-0.6623676612815453,-1.5056321031608704,3.258950466984566,3.2590263913901314,-0.44304172313710727,-1.1244561820574024,0.39619321777739736,0.11658487517653407,3.259385557101435,3.259311599649381,105342892
0,0,0,0,0,0,0,0,0,0,0,0,0.04595904898155319,-0.03116598500799954,-0.8531794611429525,-1.018688764415832,3.2586998771071283,3.2584630559042758,-1.292603563380666,-1.237926189652227,0.08896845447641068,-0.7012586595128368,3.2588552664345816,3.258660538036887,105343949
0,0,0,0,0,0,0,0,0,0,0,0,0.5301396048235422,-0.07974698302113807,-0.3417062451489264,-0.8054713970984694,3.258815533973638,3.2585617969705813,-1.2870390518950285,-1.6138570325204171,-0.06597083401332307,-0.8560767836662272,3.259393031524781,3.259349365156813,105345005
0,0,0,0,0,0,0,0,0,0,0,0,0.308595336508195,-0.13202585363696262,-0.3620193674587449,-1.1552307433165006,3.2588556598252842,3.258815533973638,-1.1421505024612548,-1.4579334804932451,-0.4637022094371568,-0.8351629537538234,3.258917028774861,3.2592234801320408,105346062
0,0,0,0,0,0,0,0,0,0,0,0,0.5332658807356214,-0.059564466424520776,-0.2626791671132048,-1.0331679026088598,3.258927650323826,3.2586448024087904,-1.1246292739664643,-2.1805481410679985,-0.7667216261293441,-0.07586264322550812,3.2592077445039442,3.2591038893585074,105347118
0,0,0,0,0,0,0,0,0,0,0,0,1.070041199927473,0.11263208539868419,-0.45936547033375147,-0.5522292795454596,3.258653457004244,3.258879263267429,-0.5246502309620655,-1.6251477390703843,-0.3993230342057984,-0.36039781098339685,3.2595968079086313,3.259474070009478,105348175
0,0,0,0,0,0,0,0,0,0,0,0,0.5411608387423561,-0.35244699149691955,0.19272643241005327,-0.4209213639404015,3.2586455891901958,3.2586318205156113,-0.5067973741051405,-1.4037604336453,-0.315411617208912,-0.013137675897798047,3.2593509387196224,3.2594008993388295,105349231
0,0,0,0,0,0,0,0,0,0,0,0,0.015902819145061867,-0.003828084925184837,-0.2999714255298883,0.3600709033096913,3.258942205779815,3.258756918758978,-0.033898476826963043,-1.102971935626499,0.021856000644683914,0.2207106734169332,3.2593898843991616,3.2594248961716765,105350288
0,0,0,0,0,0,0,0,0,0,0,0,-0.2342279713425602,-1.0116073383816884,1.1044310217417503,-0.2756583065579303,3.2590366195483944,3.2588473986205333,-0.31972829338649433,-0.9282627973869797,0.05032096508991302,-0.23073348173302194,3.259164078135976,3.259383590147923,105351344
0,0,0,0,0,0,0,0,0,0,0,0,-0.22004623652055696,0.26703164184470674,0.20041486029802089,-1.141455774480793,3.258788783405874,3.2588056992060777,-0.21551948970788593,0.3015607239676385,-0.1369090124260202,0.1724534359518809,3.2591097902190436,3.2595405530381862,105352339
0,0,0,0,0,0,0,0,0,0,0,0,-0.11172374626681164,-0.20174766799779748,-0.9133375541374151,-0.8872844680886826,3.25869200929308,3.2585031817559216,0.5026459220225717,-0.5523681464634116,0.11286890660153705,0.05084142098920595,3.2592899631607484,3.2591892551409307,105353333
0,0,0,0,0,0,0,0,0,0,0,0,-0.25007020831945037,-0.16156202096486338,-0.37072825082877287,-0.9669814904906141,3.2589606951428287,3.258875329360405,-0.028035775188896078,-0.6349648517328323,0.12677133402482677,-0.4368879123792544,3.2590614031626464,3.259237642197328,105354328
0,0,0,0,0,0,0,0,0,0,0,0,0.4567435213021661,-0.4080240497617781,-0.42996187567256394,0.00016325714150156279,3.25839853982908,3.2585141966955895,-0.09094012867690666,-0.6047689681969843,0.18226853397709536,0.6627551511234225,3.259248657136995,3.2591699789965123,105355322
0,0,0,0,0,0,0,0,0,0,0,0,0.5734440533452098,0.031191162012953997,-0.553295368349,-0.4031334165493746,3.258969743128984,3.2590956281537564,-0.16043653016525866,-0.7049687272272976,0.0325353780431006,0.3931003800750231,3.259321827807644,3.259309239305167,105356316
0,0,0,0,0,0,0,0,0,0,0,0,-0.3053703195298099,-0.1843562584348033,-0.5031600836706261,-0.4943335764805765,3.258978004333735,3.258212859417541,-0.25276847514730394,-1.3929488769708724,0.08185083649764496,0.7568337508241832,3.259585399578261,3.259309239305167,105357311
0,0,0,0,0,0,0,0,0,0,0,0,0.00833634237484245,0.19188614986969826,-0.33905479181466003,-0.3660382468746003,3.2584862659557183,3.2585496018588067,-0.3455602938604705,-1.02688584648202,-0.008009434701136912,0.026856389863060694,3.25887611614181,3.2589138816492413,105358305
0,0,0,0,0,0,0,0,0,0,0,0,0.4230901268828066,-0.444730549422568,-1.0739058701879822,-0.4818383075998196,3.2590743850558264,3.2589264701517187,0.3333396116899981,-0.6811013199211741,0.6066540964429493,0.9477088865886791,3.259323794761156,3.2593060921795476,105359299
0,0,0,0,0,0,0,0,0,0,0,0,1.2672916254152804,-1.4794126128450171,0.8720362510724367,-1.103722525086704,3.2588403175878904,3.2585381935284365,0.20396875190362357,-0.4724413838912706,0.35983644245105295,0.46690008245707537,3.259435124329939,3.259109396828341,105360294
0,0,0,0,0,0,0,0,0,0,0,0,-0.4489303885615335,-0.2820206143880623,-0.210819650986153,-1.3996955275172622,3.258469350155514,3.2586577843019704,-0.9857049209719801,-0.2856311542548125,-1.8199473404821562,0.15668909033406858,3.259140081303129,3.2589252899796115,105361288
0,0,0,0,0,0,0,0,0,0,0,0,0.42867784841988665,-0.09268717678632458,-0.41534623090579875,-1.021994426488212,3.258854086262475,3.25905550230211,-0.6418102433455279,-1.517145075457701,-0.38582737276880413,-1.4137954370731636,3.2588938187234184,3.258926076761016,105362283
0,0,0,0,0,0,0,0,0,0,0,0,0.7315009631515696,-0.32633253649861055,-0.46056255824119546,-1.0809841490965066,3.2591227721122227,3.2587093184839864,-1.1388145493047892,-1.4684488139687555,-0.6444636636333064,-1.5996768712612237,3.2594544004743575,3.259376115724577,105363277
0,0,0,0,0,0,0,0,0,0,0,0,0.9453721458163434,-0.5794530963245745,-0.8189521096887719,-1.1450143867748244,3.2588883112535845,3.258760065884598,-1.6037724618640494,-1.9563996263026746,-1.0424456289345776,-1.2661500055968766,3.2591337870518906,3.2590688775859924,105364271
0,0,0,0,0,0,0,0,0,0,0,0,1.973098668229421,0.08677490791975354,-0.5429212621356561,-1.176412472297248,3.2589347313564696,3.2590130161062496,-1.5392154740352002,-2.2061334855715615,-0.47802399134921925,-0.5822800019121172,3.2592089246760514,3.2590141962783568,105365266
0,0,0,0,0,0,0,0,0,0,0,0,0.33958350891870365,0.13136771099182495,-0.5250605374646827,-1.0972201701665125,3.258961088533531,3.2586711595858526,-1.0222764876218422,-1.79804531312529,-0.12651208955193632,-0.18887159691710434,3.259706957305307,3.2595141958611245,105366260
0,0,0,0,0,0,0,0,0,0,0,0,-0.41521759214610954,0.053821748950689904,-0.16278231892374978,-0.984860704524601,3.259029538515751,3.2583997200011874,-0.12284372125193134,-1.1698094093572389,-0.24525589290331515,0.3587137053863651,3.259092481028137,3.2591392945217246,105367254
0,0,0,0,0,0,0,0,0,0,0,0,0.5359039587860058,-0.32132349268478066,-0.7048817878820643,-0.8993206500197232,3.258736462442453,3.2587789486383136,-0.23634756044716362,-1.3182066104658376,-0.3467908199776196,0.034474007424593854,3.259206170941135,3.2590067218550107,105368311
0,0,0,0,0,0,0,0,0,0,0,0,0.7483601150941985,-0.15057737238137392,0.023647108512772144,-0.8817258574635811,3.2588064859874826,3.2586731265393647,-0.5106864345891994,-0.9152454990441202,-1.0157190580033133,-0.16866272314342534,3.2592167924900997,3.2594603013348937,105369367
0,0,0,0,0,0,0,0,0,0,0,0,-1.2748486608086418,0.8609418464829739,-0.5450506860078199,-1.307190490626155,3.2588627408579276,3.2587223003771664,-0.9247368365212484,-2.0471599754285785,-1.3320102968228216,0.26129403845000726,3.2592116784109684,3.259075171837231,105370424
0,0,0,0,0,0,0,0,0,0,0,0,0.9130578533479993,-0.2052932983986495,-0.39651540476267394,-0.6100549590653132,3.258769507261456,3.258647162753005,0.17507735193697832,-2.3491066156752844,1.1999604463530118,-0.7200678491673289,3.2595047544842664,3.2592553447789365,105371480
0,0,0,0,0,0,0,0,0,0,0,0,-0.3491609989596604,-0.2595662664850076,-0.5365101738584249,-1.4603296232616452,3.259265572937199,3.2586318205156113,0.22228344944518202,-0.27619449808531976,0.30208786750887245,0.39484310088671454,3.259227414039065,3.259291143332856,105372537
0,0,0,0,0,0,0,0,0,0,0,0,0.21276378783748004,-0.6508991421340873,-0.6002548098867905,-0.8737238971857901,3.258699483716426,3.2587533782426568,0.6370340868275268,-0.43400475192126653,0.35618341638844203,0.7872393116044176,3.259090120683923,3.2591054629213168,105373593
0,0,0,0,0,0,0,0,0,0,0,0,-0.19985939262621313,-0.1652657944280856,-0.7893518196763777,-1.622806671000322,3.258638508157552,3.2588654945928446,0.8643128114119544,-0.29172752997011303,0.9847273450764829,0.8486153422135522,3.2593383502171456,3.2592702936256277,105374650
0,0,0,0,0,0,0,0,0,0,0,0,-0.0007828474978026746,-0.6855269653233248,-1.2865764244289903,-1.3773182841918805,3.259193189047955,3.2588949988955256,0.08163761873693688,-0.686558829135755,-0.05784770939918868,-0.12439761452646428,3.2593163203378106,3.2591813873268825,105375706
0,0,0,0,0,0,0,0,0,0,0,0,0.029658905227053788,-0.55789528583232,-0.9527320924677959,-1.0602382970140334,3.2585126231327797,3.258601529431525,-0.457214409972955,-1.238235394744324,-0.4244610934807173,-0.1336989442943268,3.258907980788705,3.2588769029232143,105376763
0,0,0,0,0,0,0,0,0,0,0,0,0.2785450075322399,-0.31068266757520047,-0.293265294225847,-0.8409638930516115,3.258585007022024,3.2586483429251123,-0.3975732323614635,-1.043954282278333,-0.16579687187634368,-0.008922101130736009,3.2594323705950226,3.2592459034020784,105377819
0,0,0,0,0,0,0,0,0,0,0,0,0.42595243763356655,0.03925488463102396,-1.1321768679829678,-0.9454775745245902,3.258961875314936,3.258979184505842,-0.37621290400182056,-0.8544347708743537,-0.4370857879025683,-0.8847152334112206,3.258994133352534,3.2591223787215204,105378876
0,0,0,0,0,0,0,0,0,0,0,0,0.2212527658048589,-0.45781236384062335,0.051389414237667824,-1.086268566402026,3.2587301681912146,3.2586711595858526,-0.9296432053617484,-1.2111858500463784,-0.5373146578448603,-0.4448682361684127,3.259267539890711,3.2591231655029254,105379932
0,0,0,0,0,0,0,0,0,0,0,0,-1.4073328146139161,1.5827032426241925,-0.8975802895522462,-0.585033736829011,3.259014589669059,3.258879263267429,-0.6239034919623722,-2.2904823530295317,-0.3122208252216369,-0.18580905029881598,3.259490199028277,3.259560615964009,105380989
0,0,0,0,0,0,0,0,0,0,0,0,0.3808804846859556,-0.4339772145720976,-0.6217378761455864,-0.8915370215817715,3.259084613214089,3.2589693497382815,-0.1526367727085081,-2.076323208370591,1.153318471112069,-1.1880450353676124,3.2594831179956336,3.2592553447789365,105382045
0,0,0,0,0,0,0,0,0,0,0,0,0.49975607392264293,-0.03949563974090096,-0.22240618734433498,-1.1701292359983009,3.2585421274354607,3.258800978517649,-1.7172357818169333,-1.0762579531977121,-0.7911228646186429,-1.5817563512034833,3.2592136453644804,3.259083039651279,105383102
0,0,0,0,0,0,0,0,0,0,0,0,0.9729307380832121,-0.2875800117945685,-0.567428322723904,-1.147563165135761,3.2588623474672254,3.258843464713509,-1.3920015921594608,-2.2017314436115556,-0.6704341376345322,-0.8808045364385291,3.259245510011376,3.259313959993596,105384158
0,0,0,0,0,0,0,0,0,0,0,0,0.8665236671595177,0.09469071563371606,-0.518922068944224,-0.7150509375394508,3.2586825679162224,3.258529538932984,-1.018326058188207,-0.8239639072375187,0.07414863993509291,-0.2621500566184588,3.258962662096341,3.2589693497382815,105385216
0,0,0,0,0,0,0,0,0,0,0,0,0.14241451530629579,-0.10347749036282186,-0.1581985304592288,-0.7400347876590238,3.2585665176590104,3.258306486404715,-0.824591365407868,-0.871589359234495,-0.10753728241172819,-0.375620457603986,3.2590964149351613,3.2588234017876863,105386273
0,0,0,0,0,0,0,0,0,0,0,0,0.774113437427692,-0.12382208392883347,-0.06049326187291882,-0.7054313546933357,3.25869200929308,3.2585370133563294,-0.8266035588507126,-1.0589298795378064,-0.6676375231310753,-0.544016461851175,3.259210104848159,3.259438664846261,105387331
0,0,0,0,0,0,0,0,0,0,0,0,0.5554027623418286,-0.3411086846719604,-0.023514535846058827,-0.6334975044128304,3.258820254662067,3.258926076761016,-0.8854717237319617,-1.7626078918704855,-0.6242894082414399,-0.3484485683975897,3.2594221424367595,3.2592222999599336,105388388
0,0,0,0,0,0,0,0,0,0,0,0,1.233993069409498,-0.24190695785366986,-0.3935338966290827,-0.930959884042726,3.259038193111204,3.258459908778656,-0.14216195847534638,-1.075444421225121,-0.3393042015199901,0.1998645067053445,3.259326548496073,3.259038193111204,105389446
0,0,0,0,0,0,0,0,0,0,0,0,1.9406698990666746,0.40763419957568636,-2.048160761375518,1.6359518213214659,3.258727807847,3.2587978313920294,-0.018256869108303677,-0.9636958913440574,-0.43467508967817897,0.482490549384421,3.2594012927295317,3.259248657136995,105390503
0,0,0,0,0,0,0,0,0,0,0,0,0.18573942014448883,-0.4275503906667698,-0.5491478501734555,-1.1301469719585147,3.258873362406893,3.2586821745255197,-0.137654881197796,0.4057443506412924,0.27502848804336644,0.23320554890698778,3.2591668318708935,3.2591109703911503,105391561
0,0,0,0,0,0,0,0,0,0,0,0,0.26593290161286615,-0.04628359631104425,-0.7006032706026162,-0.8449261242063193,3.259050388222979,3.258658571083375,0.5170168777724358,-0.29878456578070706,0.35885335908572186,0.643054931527964,3.259313959993596,3.2592073511132416,105392618
0,0,0,0,0,0,0,0,0,0,0,0,-0.22850177627823068,-0.16371229454425507,-0.778252694398486,-1.3516318382777974,3.258600349259418,3.2587183664701422,0.20862571103879343,-1.5690785490368067,-0.11756323785343621,-0.3178470990475534,3.259264786155794,3.25906848419529,105393675
0,0,0,0,0,0,0,0,0,0,0,0,-0.3374434634975747,-0.7600607347560805,-0.5809216238166838,-1.1517193379067585,3.2588796566581317,3.25867076619515,-0.40335489551483333,-1.2766035767321082,-0.16514974417087364,-0.5979511139334576,3.2591538499777135,3.259138507740319,105394733
0,0,0,0,0,0,0,0,0,0,0,0,0.36155319947638503,-0.5480270800622797,-0.9194036387686298,-1.0458181674263676,3.259056289083515,3.2591573904940354,-0.6051297074710974,-0.8088380347297233,-0.3679461917813053,-0.3079800734496204,3.2594437789253923,3.2593123864307865,105395790
0,0,0,0,0,0,0,0,0,0,0,0,0.7929446569615193,-0.40594773363444014,-0.9661738593785595,-0.9746530025783781,3.2587246607213807,3.258688075386056,-0.550999146819013,-1.2284793053244716,-0.25963353629512026,-0.5601364326639691,3.2593957852596978,3.2594197820925452,105396848
0,0,0,0,0,0,0,0,0,0,0,0,0.23094591271232517,-0.4137533919517269,-1.1077862510426344,-1.0812843062024482,3.258837563852973,3.258771474214968,-0.025581410596538852,-0.6072626718595828,0.33372828170398255,0.43543984120367063,3.259230561164684,3.259193582438657,105397905
0,0,0,0,0,0,0,0,0,0,0,0,0.30323538818781237,-0.4799933052055007,-0.06306210315967835,-0.35238483576593826,3.258928043714528,3.2589807580686516,0.3080937633626179,-0.8287388835834125,0.40135607735587087,-0.056288702045524365,3.2596703719699827,3.2590177367946787,105398963
0,0,0,0,0,0,0,0,0,0,0,0,-0.4093694459640319,0.7261382610962702,-0.6224750903219092,0.07804006076336631,3.2587722609963725,3.2587242673306784,-0.8823037484054265,-1.2859772903892148,-0.4365728064266212,-0.6446387224958804,3.2592077445039442,3.259040160064716,105400020
0,0,0,0,0,0,0,0,0,0,0,0,0.8551928347579043,-1.2021980526683393,0.6077945360892458,-1.388470123823896,3.2589197825097775,3.259040160064716,-0.5409393597768974,-0.9161605258179337,-0.05747005432487181,-0.9081680069170006,3.259117264642389,3.259099168670078,105401077
0,0,0,0,0,0,0,0,0,0,0,0,0.03969941612475111,0.20867606504870237,-0.10341808836675744,-0.5926167360087318,3.258653457004244,3.2587423633029893,-0.9408084202776456,-0.4968973036882047,0.31434434823326446,-0.24322127619043304,3.2593698214733386,3.2591463755543675,105402071
0,0,0,0,0,0,0,0,0,0,0,0,0.6099668395479726,0.1339924137583272,0.07019978406426716,-0.8520181717894282,3.2587219069864637,3.2582545588319967,-0.5129016176344892,-0.6804195738338915,0.6061702258789808,0.3786995266317757,3.2592163990993974,3.259258098513853,105403064
0,0,0,0,0,0,0,0,0,0,0,0,0.548191123985186,-0.17477837500314414,-0.4599347066801437,-1.1619860484583435,3.2584536145274177,3.2590614031626464,-1.0169267674597224,-0.6871461614544584,0.38828409770537586,-0.8395783709977115,3.25876203283811,3.25896580922196,105404057
0,0,0,0,0,0,0,0,0,0,0,0,0.028219095256220728,-0.46174823781826946,-0.7347389620231344,-0.9366727038231734,3.2585090826164578,3.2586613248182923,-1.4363878651127653,-1.3554658240635185,-0.6857854230148104,-0.6188311122454538,3.2592726539698424,3.259376902505982,105405050
0,0,0,0,0,0,0,0,0,0,0,0,0.781312093891155,-0.13213639642434077,-0.20791092013250828,-0.30433176807543855,3.259087760339708,3.2586943696372948,-0.5543689315758862,-0.850058692700707,0.4774496409236957,0.0994432687095724,3.259313173212191,3.259286422644427,105406043
0,0,0,0,0,0,0,0,0,0,0,0,1.1708951676959,-0.03808690763555856,-0.5808260298759973,-0.24915046085720785,3.2589693497382815,3.258550388640211,0.23481687722407307,-0.3768655391771244,0.5274256023675921,0.17651008087516795,3.259050388222979,3.258590514491858,105407037
0,0,0,0,0,0,0,0,0,0,0,0,0.9902119982495305,-0.2520611586643647,-0.22254269391807244,-0.40768258663208323,3.2588072727688875,3.258938271872791,-0.9134170190593026,-1.4438457660491186,-0.695756697148883,-0.7834367970748897,3.2592852424723198,3.259324188151859,105408030
0,0,0,0,0,0,0,0,0,0,0,0,-0.7512948097342025,0.20589636634544925,-1.331464663918574,-0.21099549663013178,3.259022064092405,3.258696336590807,-0.6771383019850613,-1.0974314209737088,0.008947278135690467,0.026311150349515717,3.259144801991558,3.259494132935301,105409023
0,0,0,0,0,0,0,0,0,0,0,0,1.6670867284639748,-1.8361015362860602,1.768519373955652,-2.387601862859948,3.2586750934928768,3.258424503615439,-0.7545308416522551,-1.0819566109128724,-1.146174889346944,-1.1934215060974962,3.25934071056136,3.258723480549273,105410016
0,0,0,0,0,0,0,0,0,0,0,0,-1.6069821366050405,1.9079818854310375,-1.596420776417348,-1.5953106278551372,3.258578319380083,3.258622379138753,-1.0049893265949876,-1.8275452885085688,-0.899586975525257,-0.023346951406830716,3.2589579414079117,3.2590964149351613,105411009
0,0,0,0,0,0,0,0,0,0,0,0,0.861188502453387,-0.6451678329906264,-0.7944808476544436,-1.373066910870899,3.258913488258539,3.259085006604791,-0.0771742078273544,-1.2718974437591366,-0.2963018770577761,0.1664837320427575,3.2591967295642768,3.259291536723558,105412003
0,0,0,0,0,0,0,0,0,0,0,0,0.18233541039650564,-1.0532241407900025,-1.6638121442570857,-1.0010408641148645,3.2588647078114397,3.2584901998627425,-0.24894550430125048,-0.9340546886986122,0.264979322550216,0.6716119493975579,3.2593713950361485,3.2590869735583032,105412996
0,0,0,0,0,0,0,0,0,0,0,0,0.19762965412493397,-1.2413541962330574,-1.7156519908490169,-1.3482006845713477,3.259022064092405,3.2587474773821206,0.023899665343721548,-0.6625450804883337,0.18064815767385453,1.0851835948447697,3.2592262338669578,3.259205777550432,105413989
0,0,0,0,0,0,0,0,0,0,0,0,-0.1252079993734359,-0.9148969548817819,-1.6914895405160832,-1.447614448978239,3.2589205692911825,3.2589764307709252,0.4533438388519095,-0.18824925282588634,0.49688550196713227,0.7589958261246473,3.259244723229971,3.259058256037027,105414982
0,0,0,0,0,0,0,0,0,0,0,0,-0.8768320771255584,-0.18325791159366506,-0.3380201742673128,-0.5108740819542505,3.2588198612713644,3.2584795783137768,0.002331626693204247,-0.5683280072603234,0.2665426572016069,0.43806454397017286,3.259411914278497,3.259193189047955,105415975
0,0,0,0,0,0,0,0,0,0,0,0,0.16895815956093782,-0.11260690839372973,0.019809975601431797,-0.7062590487312136,3.2589213560725874,3.2588033388618634,-0.13874181970856422,-0.9185499809443928,-0.4931770078154811,-0.061664779384705944,3.259195156001467,3.25942056887395,105416968
0,0,0,0,0,0,0,0,0,0,0,0,1.437113670958718,-0.028216734912006245,0.19835900048720842,-1.161681957445378,3.258789570187279,3.258883983955858,-0.9291793977236029,-1.2962321992197274,-0.8383077190289162,-0.8777962777371737,3.2591861080153115,3.2590224574831073,105418026
0,0,0,0,0,0,0,0,0,0,0,0,-0.5401635933117381,-0.38037497763335437,0.3415886213289048,-0.4222557452029878,3.258813960410828,3.2585200975561257,-1.1026174906036246,-1.9498949110382688,-0.565922029724363,-0.7202405476856883,3.2594854783398484,3.259054322130003,105419083
0,0,0,0,0,0,0,0,0,0,0,0,-1.2646378117367996,1.6054199821257569,-0.5021899821984745,-2.220197203182841,3.2590023945572844,3.2586896489488657,-0.8243132381812618,-1.866297026431206,-0.33467792685960845,-1.0080790171717424,3.2588788698767264,3.2586522768321364,105420141
0,0,0,0,0,0,0,0,0,0,0,0,0.7972648736554233,0.07377609893990741,0.09558174557468242,-1.6509309590972614,3.2588422845414025,3.258915455212051,0.23283851538163605,-2.4813378192589064,-1.5765423508336962,1.0402564096756468,3.2591975163456812,3.2591459821636652,105421198
0,0,0,0,0,0,0,0,0,0,0,0,1.11231535819952,-0.1984325645485597,0.0005424857786280845,-2.729875770792457,3.25905707586492,3.2586243460922653,-1.1100037944321386,-1.4001982808349467,0.22135190026186707,-0.2697661006171823,3.259256131560341,3.259281701955998,105422256
0,0,0,0,0,0,0,0,0,0,0,0,0.8048876052960878,-0.16015053512460412,-0.29131958381171036,-0.9828182199976706,3.2588454316670212,3.258645195799493,-1.2518821182110451,-1.643357007903696,-0.023109736813275435,-0.34362756533951344,3.259232134727494,3.2588068793781853,105423313
0,0,0,0,0,0,0,0,0,0,0,0,1.596713065709241,-0.19884208426977207,-0.4355196995162605,0.3540716950978869,3.25876203283811,3.258627099827182,-1.522744205325151,-1.3571432420186091,-0.18807576752612204,-0.40013735295979413,3.2591459821636652,3.259147555726475,105424371
0,0,0,0,0,0,0,0,0,0,0,0,1.424591651510197,-0.2239966659541924,-0.5915801515078725,-0.40648589211534164,3.25918099393618,3.2586337874691234,-0.9037541632359223,-1.380878470048722,-0.0817847468596395,-0.28153320330777204,3.259230561164684,3.259553534931366,105425428
0,0,0,0,0,0,0,0,0,0,0,0,0.01835757712812151,-0.30073578366467757,-0.38608858419520664,-0.4109835280160341,3.2586101840269786,3.2586247394829675,-1.4831431368760033,-1.8056947953337188,-0.6697815024592283,-1.200127244010835,3.258776588294099,3.2585621903612836,105426485
0,0,0,0,0,0,0,0,0,0,0,0,0.36311771429988315,-0.2521461310560859,-0.533030239704876,-1.2057881362185638,3.258514983476994,3.2584445665412622,-1.319421007564188,-1.8356491369782848,-0.7069270261439116,-0.8611192656897623,3.259165651698786,3.259079105744255,105427543
0,0,0,0,0,0,0,0,0,0,0,0,0.898183357499046,-0.0051125055685646015,-0.8888824211218859,-0.10800777769181462,3.258871002062678,3.259117658033092,-0.6069629081443438,-1.380642435627274,-0.27017483355698985,0.031173459431345394,3.259127492800652,3.259288389597939,105428600
0,0,0,0,0,0,0,0,0,0,0,0,0.1377658173758766,0.7770784231517819,-0.3543852274877104,-0.10218677546820347,3.259073598274421,3.2588147471922335,-0.6936803810215451,-2.217247953086847,-0.24803716516937793,-0.2774887534962599,3.2591888617502285,3.2590853999954934,105429658
0,0,0,0,0,0,0,0,0,0,0,0,0.0842674355825705,2.3411333729187698,-2.4614035321955123,0.9533036891584026,3.258631033734206,3.258681387744115,-0.7346071761378259,-1.3925806632734135,-1.1663621266319903,-0.28927316537775577,3.259289569770046,3.2592643927650915,105430715
0,0,0,0,0,0,0,0,0,0,0,0,0.18516270937475077,0.15773118230476169,-0.03718250241071014,-1.123312988676189,3.2586924026837827,3.2588151405829358,-0.5116691245638281,-2.127943936341278,0.1669357379598305,-0.7549045628195479,3.259267146500009,3.2591034959678047,105431773
0,0,0,0,0,0,0,0,0,0,0,0,-0.416449298435366,-0.026367798610663247,-0.44723526802483415,-1.3110240830211737,3.2586723397579593,3.258837563852973,-0.33528571549483716,-1.488093172084471,-0.14851364475651319,-0.1508739889709936,3.2593147467750008,3.2591585706661426,105432830
0,0,0,0,0,0,0,0,0,0,0,0,-0.4514960827226737,-0.671211477662501,-0.3202916288723503,-1.253578025529149,3.258706958139772,3.258706171358367,-0.12481972275015386,-1.6891803370929166,-0.22532514635624246,0.20202225470808202,3.259237642197328,3.2592439364485664,105433887
0,0,0,0,0,0,0,0,0,0,0,0,0.07470410760690065,-0.8764556022233488,-0.8730913249363095,-1.2896881448850805,3.258775408121992,3.259003574729392,0.1179853460771258,-1.2580099651825385,0.3845897656190116,0.22503718436207584,3.2588863443000724,3.259201056862003,105434944
0,0,0,0,0,0,0,0,0,0,0,0,0.16280985627291872,-1.0140341656248766,-0.6088728200045609,-0.6953172797342871,3.258579892942892,3.258609790636276,0.2344160120983138,-0.5119673147162573,0.6070136555449552,0.5231152204412485,3.2593068789609525,3.2590822528698746,105436000
0,0,0,0,0,0,0,0,0,0,0,0,0.2593676041802888,-0.3781932327977696,-0.5003729105440272,-0.83794973348972,3.2588824103930483,3.2587407897401794,-0.3412542392318534,-0.782224760320754,0.18412966539021317,-0.34291631494955,3.259085006604791,3.2591754864663462,105437057
0,0,0,0,0,0,0,0,0,0,0,0,0.35943243019967436,-0.4706569636651234,-0.43400750565618346,-0.9442340665142616,3.2586782406184955,3.2587958644385173,-0.5484228311089075,-0.5856371981665132,0.021232476381358667,-0.38624200656914787,3.259198696517789,3.2591223787215204,105438113
0,0,0,0,0,0,0,0,0,0,0,0,0.5595408391405152,-0.22554465836818913,-0.6427740505664408,-1.3932946673982938,3.2589292238866356,3.2587769816848016,-0.17577286669884523,-0.9299382483885584,-0.030705717886175855,-0.7306547797506785,3.259300584709714,3.259348184984706,105439169
0,0,0,0,0,0,0,0,0,0,0,0,0.21637039379720613,-0.22489595709990942,-0.8632951096648108,-0.8711975420948913,3.258548421686699,3.258696336590807,-0.8962046022659065,-0.8088014493943989,-0.05273795756554098,-0.23113316668667394,3.2592124651923733,3.259050388222979,105440226
0,0,0,0,0,0,0,0,0,0,0,0,1.6498306453026108,-1.0027450326377192,-0.46157435912780276,-1.1247893839823464,3.258915455212051,3.2587187598608445,0.21240265517266455,-1.551727658716161,2.047306710160578,-0.6349298399603175,3.2587313483633213,3.2588658879835473,105441282
0,0,0,0,0,0,0,0,0,0,0,0,0.28813665963848345,0.3083026538255994,-0.31310713447417426,-0.70214103485835,3.2591318200983785,3.258850545746153,-2.3785204384947347,0.9393851327163139,0.04511089862714989,-0.4285452757531733,3.259372181817553,3.2593017648818208,105442338
0,0,0,0,0,0,0,0,0,0,0,0,0.44263928444853834,0.1843511443556719,-0.3931361786289428,-0.3492447911792744,3.2583572338053264,3.2585342596214124,-0.45789104198110603,-0.9331908027161124,0.05294448768430801,-0.15921505203426506,3.2592108916295635,3.259123558893628,105443395
0,0,0,0,0,0,0,0,0,0,0,0,0.10783389900134789,-0.08556011743070094,-0.03867542012636901,-0.32932623974397657,3.2587518046798474,3.2585712383474394,-0.865027208927537,-1.258221609380437,0.17266940744750586,-0.4509115041388874,3.2588757227511076,3.2588678549370593,105444451
0,0,0,0,0,0,0,0,0,0,0,0,0.13678627452686723,-0.08752903789628003,-0.02229345110576762,-0.09821864345295947,3.258728594628405,3.2588167141457456,-0.7863148434537461,-1.1349829238632825,-0.37913028945091837,-0.5946289294515763,3.2591672252615957,3.2592659663279013,105445508
0,0,0,0,0,0,0,0,0,0,0,0,-0.04135323063769706,-0.034847335201184174,-0.45357318563141646,-0.6526044908290494,3.2586377213761475,3.2587691138707533,-0.6630435065082915,-1.1447858267767224,0.16563164778133005,-0.2004951120013132,3.259205777550432,3.25904409397174,105446564
0,0,0,0,0,0,0,0,0,0,0,0,0.6077972898241627,-0.14469382103607903,-0.4061302669203599,-0.9409044076090345,3.2590653370696705,3.259094054590947,-0.5188406370688244,-0.4517148079532156,0.21523821535566035,0.1885647521692219,3.25914676894507,3.259042127018228,105447620
0,0,0,0,0,0,0,0,0,0,0,0,0.08530598703694188,-0.3647042590027164,-0.4549055999404907,-0.42566132851378063,3.25876203283811,3.2588316629924368,-0.10783035848502617,-1.1378141567485518,-0.3857455475027022,0.1588204811597444,3.2594532203022504,3.2596034955505724,105448677
0,0,0,0,0,0,0,0,0,0,0,0,0.6395856189233802,0.25804148412245326,-0.5560994572758028,-0.6834038357023996,3.2589288304959334,3.258786423061659,-0.11222020533325736,-1.4955845112305297,-0.264661462862666,-0.40626598671269254,3.259447319441714,3.2590932678095417,105449733
0,0,0,0,0,0,0,0,0,0,0,0,1.66705171669146,-1.713118948116177,-0.24433771900388226,-0.15967256542117184,3.259060222990539,3.258793110703601,-0.3434214286114488,-1.5728861776454661,-0.21518432082942973,-0.055123872175678275,3.259322614589049,3.2591983031270866,105450789
0,0,0,0,0,0,0,0,0,0,0,0,0.41237652449327994,-0.11875914558877296,-0.9179756305188692,-1.0097249638706403,3.258731741754024,3.258467383202002,-1.2239427237442402,0.8053769833298902,-0.8126952305668866,-1.1258424908927072,3.2592124651923733,3.2588481854019387,105451784
0,0,0,0,0,0,0,0,0,0,0,0,1.3472345170062203,-0.3330886284218583,-0.7927865138991491,-0.5992268799813842,3.258924109807504,3.2583875248894123,-0.17821778991434453,-0.7479159769911737,0.21822837808470463,0.6218783166263481,3.258961088533531,3.258985085366378,105452778
0,0,0,0,0,0,0,0,0,0,0,0,0.019389047549849454,-0.24633102969301102,-0.4622694804989672,-0.8065048344737094,3.2585322926679003,3.25888752447218,0.6129322186627648,-0.5671077093014371,0.7001382827923635,0.4049497014224173,3.2593544792359443,3.259262819202282,105453773
0,0,0,0,0,0,0,0,0,0,0,0,-0.3130367175384423,0.0583705256426961,-0.7087775360080641,-1.297390734838335,3.258765966745134,3.258529538932984,-0.025521221819069604,-0.8866074426898292,0.17943258040339713,-0.14960845108132972,3.2590669106324803,3.2590417336275257,105454767
0,0,0,0,0,0,0,0,0,0,0,0,-0.0201475048241025,-0.44288358007473705,-0.8189713858331902,-1.0380467341001909,3.2590787123535527,3.2589477132496487,-0.40978722688999497,-1.171569045969134,-0.07563132949248903,-0.19261077554354375,3.2591499160706894,3.2590197037481907,105455762
0,0,0,0,0,0,0,0,0,0,0,0,0.1279873046859866,-0.2511614741279452,-0.34824400523233473,-0.9367191239260583,3.258672733148662,3.258701057279236,0.237438432864956,-0.1040978675005278,1.1788054679400286,0.9606014800788736,3.2594213556553546,3.2592659663279013,105456756
0,0,0,0,0,0,0,0,0,0,0,0,0.3023156407255698,-0.43841623525813045,-0.6655777294132387,-0.9809810854174,3.2589606951428287,3.258902866709574,0.3915728439775519,-0.7223534491483508,0.2585111926211348,0.3186315201081657,3.2592348884624105,3.2586542437856485,105457751
0,0,0,0,0,0,0,0,0,0,0,0,0.5295805966354128,-0.40379431292942913,-0.668213053728706,-0.4460472281035457,3.2591204117680084,3.2588674615463566,0.001209676409921218,-0.9746168106337559,-0.13417652060705668,-0.14201719069685825,3.259120018377306,3.2588446448856168,105458745
0,0,0,0,0,0,0,0,0,0,0,0,0.23768980952379815,-0.44949372404738946,0.06716792192076705,-1.1953306311763086,3.2582647869902592,3.25836431483797,-1.078581712076868,-1.359753389329122,-1.4146605032277708,-0.047991305350220836,3.2592148255365876,3.259024031045917,105459740
0,0,0,0,0,0,0,0,0,0,0,0,-0.06528240028409961,-0.4490122138276355,-0.3852707249248892,-0.6357740564076967,3.259058256037027,3.258729774800512,-1.2769198628568483,-1.4337352316063916,0.06369074150213498,-1.857028741482346,3.2591849278432043,3.258843858104212,105460734
0,0,0,0,0,0,0,0,0,0,0,0,0.9957670683583102,-0.07608962966080066,0.001436269454511339,-0.30492932855240445,3.258823008396984,3.258765966745134,-1.2854241830616213,0.5813338972728129,-2.8629732207027936,1.172832616905286,3.2590680908045875,3.258907980788705,105461729
0,0,0,0,0,0,0,0,0,0,0,0,0.39304412520457804,0.36314407147694483,0.11877448782616709,-0.008890629874542937,3.2586337874691234,3.2586998771071283,-1.0119865670188148,-1.1339553873485788,0.7546842640261964,-0.807765258284242,3.2592175792715046,3.2594705294931563,105462723
0,0,0,0,0,0,0,0,0,0,0,0,0.6298074996241926,0.37823414543082057,0.21328857103449952,-0.28928418031742337,3.2589559744543997,3.2588757227511076,-1.2783073518642607,-1.134617070510038,-0.1272422226956156,-0.7484639702396357,3.259163684745274,3.2590869735583032,105463718
0,0,0,0,0,0,0,0,0,0,0,0,0.9300983584044407,0.058227331427017616,-0.06333314935364119,-0.514426793387746,3.2589292238866356,3.258708138311879,-1.63813671328267,-1.3564630694941364,-0.0962564106293214,-0.9155739802806354,3.2595362257404594,3.259320647635537,105464712
0,0,0,0,0,0,0,0,0,0,0,0,-0.1897303688204728,-0.08960102672589143,-0.1544624989584087,-0.48117387070344336,3.258682961306925,3.2591672252615957,-1.1514388503359378,-1.3656227786091302,-0.4675865492327868,-0.91407673526725,3.2591593574475475,3.259080679307065,105465707
0,0,0,0,0,0,0,0,0,0,0,0,0.5151085394750284,-0.2595481705126966,-0.4690432750038236,-0.7837743262975605,3.2591137241260677,3.258911521305027,-1.5981733319965996,-2.025070694097363,-0.5067753442258053,-0.5713327254453571,3.2594524335208455,3.259184534452502,105466701
0,0,0,0,0,0,0,0,0,0,0,0,0.6359392805027103,-0.42994102596533607,-0.9545656865317447,-0.9662139852302056,3.258417422582796,3.2585350464028173,-0.563775296661293,-1.481587276647958,0.19594082783947323,-0.30684474788245536,3.259464235241918,3.2589398454356004,105467758
0,0,0,0,0,0,0,0,0,0,0,0,1.083712707008446,-0.6001485943971389,-1.2507833779792044,-1.309435964755531,3.2586841414790317,3.2585346530121146,0.09823595264386566,-1.0733409611393168,0.5986320732393352,0.4723300543224876,3.2591129373446623,3.2589886258827,105468815
0,0,0,0,0,0,0,0,0,0,0,0,-0.3190013073684343,-0.0042214756275982404,-0.9586734722463456,-2.6617334201018115,3.258765573354432,3.258799404954839,1.2978214976574776,-1.2310953534955207,0.37700401270437395,-0.1376871392353939,3.259261639030175,3.2591927956572526,105469871
0,0,0,0,0,0,0,0,0,0,0,0,0.6630671099504363,-0.12990508436025194,-1.4476054009920836,-1.5050164467115934,3.2587427566936915,3.258491773425552,-0.27310677446207693,0.2199148440259509,-1.3184760830969908,1.6100289475952323,3.259230561164684,3.259403653073746,105470928
0,0,0,0,0,0,0,0,0,0,0,0,0.5985903738248793,-0.1893688427649549,-1.2904269326242126,-1.8652875858888132,3.2588682483277616,3.2587911437500887,0.9905200231695201,-1.1632386044548277,0.29583728263822584,0.13853725654330926,3.2592573117324486,3.258966596003365,105471984
0,0,0,0,0,0,0,0,0,0,0,0,0.3861377580330083,-0.21244160085220345,-0.6965851779681657,-1.5884278641257124,3.2588186810992577,3.2588627408579276,-0.027557412094761383,-0.39002485156355515,0.1194145344989937,-0.24662725289192827,3.2592089246760514,3.259189648531633,105473041
0,0,0,0,0,0,0,0,0,0,0,0,-0.1005821347930592,-0.6289912139166848,-0.9726856556756085,-0.8863930447570139,3.2588977526304426,3.258725447502785,0.08418167640944438,-0.07464981968996759,0.3361326856771333,0.16904155838984947,3.2592364620252203,3.259372575208255,105474097
0,0,0,0,0,0,0,0,0,0,0,0,-0.08685437284164105,-0.4428792527770105,-0.5064637787894939,-0.5031825069406637,3.2590130161062496,3.258953614110185,0.4292777692410671,-0.9380125925555935,-0.06415769626589968,0.46305036104325786,3.2592498373091026,3.2590059350736063,105475154
0,0,0,0,0,0,0,0,0,0,0,0,0.3449033313874401,-0.6612091256629379,-0.806985164521356,-1.2807027078512558,3.258423323443332,3.258514983476994,-0.15706713879908785,-1.0171572944113365,-0.1484436212114836,0.32766534419838717,3.2592553447789365,3.2588568399973914,105476211
0,0,0,0,0,0,0,0,0,0,0,0,0.5736450759941429,-0.5113689674578866,-0.6920037498478592,-1.4942257397443939,3.258651490050732,3.258419389536308,-0.14184095166217706,-1.4399437236718802,-0.6011013866783841,-0.22551279372129365,3.258821041443472,3.2593182872913227,105477267
0,0,0,0,0,0,0,0,0,0,0,0,-0.012716354455513293,-0.49274585160563605,-0.5299023902299869,-0.8491055070287593,3.258837563852973,3.2589583347986144,-0.8287735019652249,-1.8492215096022497,-0.3792258833916048,-0.034315077580818844,3.2592718671884375,3.2591149042981744,105478324
0,0,0,0,0,0,0,0,0,0,0,0,0.7424214890505658,-0.7045202618265464,-0.5115219964411254,-1.3924901834118584,3.259083826432684,3.2585932682267744,-0.13288580571243833,-1.8464103396428035,0.6027142885582791,0.3690248690873228,3.2593017648818208,3.259064550288266,105479380
0,0,0,0,0,0,0,0,0,0,0,0,0.9161318082966575,0.11728511062682993,-1.9144071357735557,1.3875657185990475,3.2589728902546033,3.258617658450324,-0.9448229723957744,-0.8543553059524662,-0.41933442584686587,-0.16249317675747593,3.2590669106324803,3.2591337870518906,105480437
0,0,0,0,0,0,0,0,0,0,0,0,0.8389941858046276,-0.13147195952796453,-0.04894803153849024,-0.5302462137038962,3.2587321351447267,3.258680994353413,-0.5269413384129212,-1.8446038895373211,-1.3075004824996568,1.2540017073156484,3.2593599867057783,3.2592954706305823,105481493
0,0,0,0,0,0,0,0,0,0,0,0,-0.17604942036264185,0.13432286194835447,-0.3382597492050825,-0.7976240393667268,3.259052355176491,3.258782489154635,-1.8318788804863548,-1.1287177835366469,-0.03760539741580455,-0.45419277598771757,3.2593690346919337,3.2592785548303786,105482550
0,0,0,0,0,0,0,0,0,0,0,0,0.10124696508013786,0.22568155833262898,0.08565925188770912,-0.2774486276446137,3.258879263267429,3.2583611677123505,-1.044992440342002,-1.345053952342743,0.06427453330451646,-0.6238897232877877,3.259088153730411,3.258926076761016,105483606
0,0,0,0,0,0,0,0,0,0,0,0,0.5456403786707376,0.10281344685714804,0.037548355763954606,-0.2890276895794498,3.2585342596214124,3.2586381147668497,-1.81299101269138,-1.4792304729497996,-0.4062085516701402,-1.437542860215051,3.2595570754476872,3.259081859479172,105484601
0,0,0,0,0,0,0,0,0,0,0,0,0.3525543871586784,-0.16408365536733333,-0.2349734467236336,-0.15684526644292668,3.258848578792641,3.258407981205938,-1.6419958760733455,-1.2395473527368728,0.18324020901205645,-0.5030467871483311,3.259115297688877,3.2590519617857883,105485595
0,0,0,0,0,0,0,0,0,0,0,0,0.6680175385496065,-0.5174114486469565,-0.31210910226215144,-0.2811303712285007,3.258558649844962,3.2587207268143565,-0.7757298798239087,-0.8617903902280796,-0.06480482397136973,-0.4073564657397825,3.2591290663634616,3.2588993261932524,105486589
0,0,0,0,0,0,0,0,0,0,0,0,0.43434267453463965,-0.7428310087717781,-1.1039593462895567,-1.0681792817329503,3.2587191532515467,3.258649916487922,-0.41772860499961434,-0.4189394615816428,0.26335068504222453,0.1863342268865379,3.259444172316095,3.259185714624609,105487583
0,0,0,0,0,0,0,0,0,0,0,0,1.4278961334104696,-0.5234031824354151,-0.9006959439153605,-0.7701555335707108,3.25894299256122,3.258924109807504,-0.6148122328295985,-1.2116535915915478,-0.6803318477072534,-0.37954374307915484,3.2593953918689955,3.2591015290142926,105488577
0,0,0,0,0,0,0,0,0,0,0,0,1.2088164578457423,0.018395342635553195,-1.0133362905187953,-0.32194465660389143,3.25893158423085,3.2585602234077715,-0.8217817690112316,-1.823955991739749,-0.26393841075163016,-0.014521624388888404,3.2592203330064216,3.25922820082047,105489572
0,0,0,0,0,0,0,0,0,0,0,0,1.4202309155739445,-0.3862357123179092,0.20003051758176296,-1.1043503766477556,3.2584878395185277,3.2588615606858204,-0.5572513052524692,-1.5235837010841011,-0.4849988085030089,-0.05966163392801689,3.259161717791762,3.2592108916295635,105490566
0,0,0,0,0,0,0,0,0,0,0,0,0.5855801565146632,-0.5367591901730525,-0.5985478876290188,-1.7554076618442132,3.259002001166582,3.2591058563120194,-0.4681904039609914,-1.8474555787391158,0.41462986643670396,-1.002048337703745,3.259466988976835,3.2593399237799554,105491560
0,0,0,0,0,0,0,0,0,0,0,0,-0.11647629934266797,-0.1718574490377246,-0.2849682909212459,-1.4651313501753032,3.258927650323826,3.2588178943178523,-0.4360318942108028,-0.7762747259467513,-0.4602907252658278,-0.004756880373582884,3.259302551663226,3.2590558956928124,105492554
0,0,0,0,0,0,0,0,0,0,0,0,0.34425738385407734,-0.2999128103152287,-0.5498834907869685,-1.6279058012850047,3.2587809155918257,3.2585437009982705,-0.15415604760122867,-1.3571424552372044,-0.1311281360540552,-0.12169934769861075,3.258963842268448,3.2590787123535527,105493548
0,0,0,0,0,0,0,0,0,0,0,0,-0.40562397308635384,-0.5451490336834233,-0.6934561483211694,-0.708460463101919,3.2588234017876863,3.259160144228952,-0.36041984086273204,-1.5120345368426487,0.3070902236807613,-0.19763712854827983,3.2592132519737778,3.259160144228952,105494543
0,0,0,0,0,0,0,0,0,0,0,0,-0.18787435148648635,-0.21391484903274166,-0.5407599736165968,-0.9716943111055267,3.2588277290854126,3.2585122297420774,-0.16039679770431492,-1.3186338327686586,0.1823759296388542,-0.1155117053403503,3.259410340715687,3.259151489633499,105495537
0,0,0,0,0,0,0,0,0,0,0,0,0.0688827119925871,-0.11172217270400198,-0.4490775166842361,-1.0424310734785882,3.258863921030035,3.2587057779676645,-0.7733561603255462,-2.0093468677218995,-0.8602282357487959,-0.37169245144038815,3.259020097138893,3.2591802071547753,105496531
0,0,0,0,0,0,0,0,0,0,0,0,-0.10373280092868815,0.048588079045781975,-0.24305605209541942,-0.8482034621481255,3.2590141962783568,3.258799404954839,-0.7262118251576215,-1.6409156252045183,-0.13428470305022036,-0.30973538276378904,3.259345431249789,3.259254951388234,105497525
0,0,0,0,0,0,0,0,0,0,0,0,-0.33571844526749195,-0.14601836753110498,-1.1391890572534866,-0.11135356561584062,3.258826942304008,3.2586046765571446,-0.30890611516310157,-1.578340539734428,0.16473078307280337,-0.31052963859196164,3.259273047360545,3.2590594362091343,105498519
0,0,0,0,0,0,0,0,0,0,0,0,0.8117377175972125,-1.5668877562150665,2.469306358016295,-1.7650988417981675,3.258861954076523,3.25859090788256,-0.641644625859812,-0.7969596024703505,-0.08094879161701102,0.42783323858180505,3.2591129373446623,3.259267539890711,105499513
0,0,0,0,0,0,0,0,0,0,0,0,0.181018731715528,0.8751239746956795,-0.24321340837638478,0.1974168297549283,3.2586251328736697,3.2587813089825284,-1.04588701079929,-1.0993621825411537,0.8084918509115995,-0.48081313142933024,3.259067697413885,3.2590452741438476,105500570
0,0,0,0,0,0,0,0,0,0,0,0,0.20934758297772202,-0.11923514833869317,-0.009475601849031668,0.5141911523570004,3.2585267851980664,3.2583906720150315,-3.2352813285924586,0.645228415158798,-0.45775335523526134,-1.0586926649442512,3.2592474769648883,3.2592219065692314,105501626
0,0,0,0,0,0,0,0,0,0,0,0,0.675631615594818,0.04395511674345931,-0.15655966479297456,0.08655028182867548,3.2588969658490377,3.258784456108147,-1.0426513722719397,-1.1081135521070422,-0.718438818268635,-0.833954850906712,3.2590928744188394,3.2591377209589147,105502683
0,0,0,0,0,0,0,0,0,0,0,0,0.5717465724642959,0.45120536699359026,0.25668546637123424,-1.0671092590223858,3.2585378001377343,3.2588863443000724,-0.9599279951963418,-1.3822793343400162,-0.15867689355336348,-0.36882423982909196,3.2594933461538966,3.2595743846385936,105503739
0,0,0,0,0,0,0,0,0,0,0,0,1.0145975011107327,0.3158510346235078,-0.05009555221743014,-2.8205712104524623,3.258832449773842,3.258407194424533,-0.5497745215624,-0.6272134813324786,0.1473511752308816,-0.1282280597958636,3.2593906711805665,3.2590578626463245,105504796
0,0,0,0,0,0,0,0,0,0,0,0,0.6408602047991996,-0.343520563068457,-0.6129947677844486,-2.0665553172296662,3.258703024232748,3.258441419415643,-0.6136474029597524,-0.8075728902307617,-0.07612621499612511,0.040071957119936594,3.259328122058883,3.25929507723988,105505852
0,0,0,0,0,0,0,0,0,0,0,0,0.689953004116178,-0.23950648778754324,-0.4195299410259653,-1.5198354744715064,3.2586019228222276,3.258879263267429,-0.5047804599738669,-1.2137660996635078,0.007494486271677764,-0.15403252292067085,3.2592407893229467,3.259293110286368,105506909
0,0,0,0,0,0,0,0,0,0,0,0,0.5813201285982285,0.005523992243289023,-0.8559076256641894,-1.392103480351386,3.2589583347986144,3.2588281224761153,-0.49145316975750564,-1.0670809348918122,0.1918283214364435,0.17982636449651293,3.2592459034020784,3.259115297688877,105507965
0,0,0,0,0,0,0,0,0,0,0,0,1.4083965430732421,0.10003374815389492,-0.7658294160162706,0.1547559684224091,3.258817107536448,3.258533472840008,0.08073242673068365,-1.6925194373750014,0.12698612534834447,0.2585646937566631,3.2591644715266788,3.25910113562359,105509022
0,0,0,0,0,0,0,0,0,0,0,0,-0.3564340062658794,-0.659175689122163,1.687500165402909,-2.4108787907217493,3.2586101840269786,3.258620412185241,0.18136412875224694,-1.9015306713021602,-0.12001760244579344,-0.8146114366783423,3.2589197825097775,3.2592203330064216,105510078
0,0,0,0,0,0,0,0,0,0,0,0,0.2957845682841025,-0.3684642873363837,-0.8935346595686268,-0.23886683450541907,3.2589071940073007,3.2588930319420135,-1.3526570144482868,0.05742796151971358,-1.6150545138185637,-0.7750398725318756,3.2591483425078795,3.2591278861913544,105511135
0,0,0,0,0,0,0,0,0,0,0,0,0.10206521774115775,-0.5172336360494657,-0.20088456879670247,-0.9364783688161813,3.2590539287393003,3.258615691496812,0.18694830977300522,-1.0565471120532886,0.42379744336574593,0.6955839986305234,3.259414668013414,3.2591632913545716,105512191
0,0,0,0,0,0,0,0,0,0,0,0,0.5643480735240071,-0.2540682380280779,-0.8865496142565744,-1.6760241718321052,3.2586487363158145,3.2587462972100134,0.4966557617969229,-0.10256954462165171,0.6135702983820793,1.142676859221084,3.2592195462250166,3.2591058563120194,105513248
0,0,0,0,0,0,0,0,0,0,0,0,0.283362076683292,-0.24204189086459765,-0.9950219863679393,-2.063937302105105,3.258983118412866,3.2588352035087587,0.5533071700700724,-0.4724496450960213,0.4524748387902782,0.5115644826369861,3.2594469260510115,3.259331269184502,105514304
0,0,0,0,0,0,0,0,0,0,0,0,0.06033275846633416,-0.5308606899810661,-0.5890978561756439,-0.866011079074273,3.259079499134957,3.2586731265393647,-0.2191721223797944,-0.7395882892117845,0.07455186540506666,-0.45653187710426774,3.259636540369575,3.2593564461894564,105515361
0,0,0,0,0,0,0,0,0,0,0,0,0.3430882266865047,-0.4429618648245173,-0.6615513755740375,-1.2797042822485305,3.2588013719083513,3.2586743067114714,-0.6933511130036251,-1.1419199755096408,0.14190625451877767,-0.6112988604663443,3.2590059350736063,3.25920381059692,105516417
0,0,0,0,0,0,0,0,0,0,0,0,-0.1141997473478016,-0.3173982402560997,-0.9099197757148475,-1.2057476169762156,3.258758492321788,3.2587596724938956,-0.2616189791702007,-1.135990004061461,0.16339482824740748,-0.09224933293453846,3.258898146021145,3.25913693417751,105517412
0,0,0,0,0,0,0,0,0,0,0,0,0.01904522407594014,-0.47820337750951974,-0.534315053738958,-0.8062365420146634,3.2588454316670212,3.258413488675772,-0.17203526163521546,-1.1320737996189354,0.028435853533250514,-0.39892925011268254,3.2594296168601056,3.25904409397174,105518406
0,0,0,0,0,0,0,0,0,0,0,0,-0.21260485799370502,-0.1488625823095539,-0.08317734994618296,-0.7236661939223044,3.258482332048694,3.2585857938034284,-0.35830064514883103,-1.0070695766293498,0.18324492970048542,0.005813527800265288,3.258904046881681,3.2589713166917935,105519401
0,0,0,0,0,0,0,0,0,0,0,0,-0.258310563362904,1.5284397159146923,-0.7431583098361861,0.10921194663190205,3.258949680203161,3.2589327644029575,-0.2594502162277956,-0.4380476281699691,0.2910288680826268,-0.7619289472018418,3.2592683266721156,3.2592557381696388,105520395
0,0,0,0,0,0,0,0,0,0,0,0,0.656583637783961,-0.12696566903181897,-0.13581381271050127,-0.20764066071995027,3.2588320563831394,3.2587777684662065,-0.391458760673852,0.42038556580371444,-2.2462475354966562,1.0129798785424087,3.2592175792715046,3.259519703330958,105521390
0,0,0,0,0,0,0,0,0,0,0,0,0.8534056607968402,-0.3203675532779161,-0.2331394592689823,-0.4913186301372802,3.2589174221655632,3.258623952701563,-0.9321007170797249,-1.3737045971995112,0.14470562275715143,0.09433194331311504,3.259175093075644,3.2587777684662065,105522384
0,0,0,0,0,0,0,0,0,0,0,0,1.4342596214127088,-0.1441493683039389,-0.7910662163574953,-1.0101403844523886,3.25896580922196,3.258863921030035,-1.0552194184326433,-1.115435733251063,0.5883692965947743,0.2274659785587762,3.259173519512834,3.259018523576083,105523379
0,0,0,0,0,0,0,0,0,0,0,0,2.5671835383395596,-0.03850232821730711,-0.27236405281592047,-1.415950431340984,3.2588273356947104,3.258727414456297,-1.0077273258837849,-1.6229648140626924,-0.49711091483961517,-1.2392778801057196,3.259345431249789,3.259291143332856,105524373
0,0,0,0,0,0,0,0,0,0,0,0,-0.015302111542476599,-0.05836855868918403,-0.002409518052282101,-1.2428982547400302,3.259018130185381,3.2588359902901636,-1.6616677715382302,-2.4499857604486657,-0.8963588114212526,-1.784207401777196,3.2591518830242014,3.2586455891901958,105525367
0,0,0,0,0,0,0,0,0,0,0,0,-0.20152343529742184,-0.06011639358000679,-0.6791091894041525,-1.5338858167989033,3.258752984851954,3.258712465609606,-1.8891286360178752,-2.3589464973147507,-0.24775156351942582,-1.6755717725243298,3.2592573117324486,3.2593182872913227,105526362
0,0,0,0,0,0,0,0,0,0,0,0,1.2959623331978718,-0.24593213152076382,-0.26759497733056276,-0.5584633420066049,3.25896580922196,3.258727021065595,-1.0887020812871553,-1.3445913248767047,-0.37087183843515376,-1.1576697656714636,3.258832449773842,3.2592344950717083,105527356
0,0,0,0,0,0,0,0,0,0,0,0,0.5058721191730641,0.274428567222186,0.40588754485697087,0.004562151975888249,3.2589469264682442,3.2584846923929085,-0.30866260631830766,-0.9375554725593891,0.2922051062828429,0.48023956778521154,3.2593348097008237,3.259143621819451,105528351
0,0,0,0,0,0,0,0,0,0,0,0,-0.0766517849745494,2.8376970812913274,-2.125384536431376,2.33667861660464,3.258790750359386,3.2588261555226032,0.1573566743560641,-1.7574800440645268,0.10572493144570963,1.0028972748395533,3.259265572937199,3.259464235241918,105529345
0,0,0,0,0,0,0,0,0,0,0,0,0.7046087747345894,0.21825119474544463,0.38311651743847336,-0.6300801193809652,3.258671552976555,3.258623952701563,-0.5899880993352055,0.19048882609472584,-1.2579556772656055,0.9581124971047039,3.259321827807644,3.258852119308963,105530340
0,0,0,0,0,0,0,0,0,0,0,0,0.05441498212992932,0.2222559120960131,-0.14252387792156673,-1.629292503511012,3.2591872881874187,3.258971710082496,2.6391256498248157,-2.1295981442449263,0.06415926982870934,-0.19758520097556123,3.2592687200628183,3.259261639030175,105531334
0,0,0,0,0,0,0,0,0,0,0,0,0.11963680024585727,-0.12422019531967583,-0.6337355057877905,-1.2660890300380025,3.2586558173484583,3.258531112495793,-0.5701828444222026,-1.0714452113443864,-0.27563745685070234,-0.7032157782573435,3.2592459034020784,3.259168405433703,105532328
0,0,0,0,0,0,0,0,0,0,0,0,-0.32508155406493594,-0.5219200994873165,-0.3224997308849968,-1.0769766780110213,3.258775408121992,3.2588005851269464,-0.7134065644033628,-0.6408684660039503,-0.013627053931600325,-0.46299882686124166,3.2589461396868393,3.2591542433684157,105533385
0,0,0,0,0,0,0,0,0,0,0,0,-0.16128546730106677,-0.47280172977468127,-1.0473626193240428,-1.2635304169095058,3.258902866709574,3.258999247431665,-0.1597394418405821,-0.7001551985925673,0.4201782489035426,0.20409227658418136,3.259033079032073,3.25887611614181,105534442
0,0,0,0,0,0,0,0,0,0,0,0,0.3025009277464065,-0.775953719133582,-1.0668901404011417,-1.3233726171699305,3.258557863063557,3.258373362824125,-0.11955497497975527,-0.8641999082803616,0.12380477473792728,0.1343232553390569,3.258708531702582,3.2590464543159547,105535499
0,0,0,0,0,0,0,0,0,0,0,0,-0.1725883689628087,-0.812411989261149,-0.8846959572668024,-1.1651119309797204,3.258879263267429,3.258616478278217,-0.09876781687352858,-1.226718095149767,0.31933175555846155,0.5209527517500819,3.259433157376427,3.259142835038046,105536555
0,0,0,0,0,0,0,0,0,0,0,0,-0.0524657311994709,-0.16172763845057944,-0.9827446559363192,-0.7104734433261685,3.259035045985585,3.258780128810421,-0.19034720544185701,-1.0370589300464308,-0.07223007347942274,-0.48828794816588733,3.2593529056731345,3.258741969912287,105537612
0,0,0,0,0,0,0,0,0,0,0,0,0.547625821545818,-0.1753224343445819,-1.0949534529392067,-0.7092716347302955,3.2588025520804584,3.2584638426856802,-0.6096053134924546,-1.23254106432689,0.23555527157250303,0.23656825263121753,3.258930404058743,3.259206564331837,105538669
0,0,0,0,0,0,0,0,0,0,0,0,2.119081630597309,-1.9858539683644734,0.7044254546672648,-0.6975497719704832,3.258472497281134,3.258527178588769,-0.31243364959164255,-1.2664832075218209,0.12600815606214474,0.1028071526059094,3.2589071940073007,3.2588568399973914,105539725
0,0,0,0,0,0,0,0,0,0,0,0,0.1796048855310542,0.1492032586578439,-0.16615131689921817,-0.7449710541929071,3.258902866709574,3.2588131736294237,-0.5606116486324845,-2.245741635053353,0.5681966147657174,0.08231267718227829,3.2592907499421537,3.2595181297681486,105540782
0,0,0,0,0,0,0,0,0,0,0,0,0.5121348991554855,0.09338701884591805,0.08526428762248607,-0.10143972652432043,3.2586487363158145,3.2585012148024095,-0.9192683123669996,-0.808645666676243,0.6169278880271778,-0.5076518187107824,3.259206170941135,3.259108610046936,105541839
0,0,0,0,0,0,0,0,0,0,0,0,1.1166343947213166,-0.23672600230288532,-0.29192265175851007,-0.5525317969956156,3.2587643931823242,3.2587832759360404,-1.1062949068897852,-1.0413299729025332,-0.03939847223740485,-0.7452051216608431,3.2592077445039442,3.2589622687056385,105542895
0,0,0,0,0,0,0,0,0,0,0,0,0.6751504987657664,-0.05899719703164065,-0.6434707455004149,-0.32967321034350516,3.258527965370174,3.258620412185241,-0.6952366346402924,-0.9741148440974764,0.10846096378099486,-0.45731275764855833,3.2592954706305823,3.25940758698077,105543952
0,0,0,0,0,0,0,0,0,0,0,0,0.7502806485033808,0.20376969620820237,-0.5004437208704616,-0.18705373848125198,3.2588289092575202,3.2585330794493053,-1.21344863336666,-0.9570318528451743,0.3307790316079892,-0.48061604268742114,3.258990986226914,3.2586865018232465,105545009
0,0,0,0,0,0,0,0,0,0,0,0,0.6567315526880684,0.12897274839553216,-0.33431994132041226,-0.5230908302176988,3.258906013835193,3.258651883441434,-1.022507407964159,-1.4195393347191017,-0.7675583681533775,-0.9123957767958375,3.2591223787215204,3.259244723229971,105546065
0,0,0,0,0,0,0,0,0,0,0,0,0.7177889368282481,-0.09503650606113744,-0.37074241289405974,-0.32259925873270734,3.2587978313920294,3.258839137415783,-0.9180208704496468,-1.639897923457375,-0.46398112344516795,-0.17601126146450774,3.2592136453644804,3.259119624986604,105547122
0,0,0,0,0,0,0,0,0,0,0,0,0.21224372532888952,0.21567015834691028,-0.40790209864402993,-1.4522843900065887,3.258874542579,3.258946533077542,-0.539616386844681,-1.7091114770306917,-0.14195385479376968,0.09497159659523922,3.2592112850202657,3.2590578626463245,105548179
0,0,0,0,0,0,0,0,0,0,0,0,0.7032291535412256,0.174874362334533,-0.40707912529458107,0.12196173929712048,3.2587978313920294,3.2586503098786244,-0.4502246439724736,-1.7908895362483903,0.0712603653979737,-0.4445523434343747,3.2593957852596978,3.25913693417751,105549235
