0,0,0,0,0,0,0,0,0,0,0,0,0.9658532459560926,0.003954756731361953,-0.06712110842717986,-0.6695907079685578,3.258765966745134,3.2588084529409946,0.7258168608923984,-3.0856016737939918,0.1310714877929077,0.5095668446501308,3.2591109703911503,3.2592557381696388,41849048
0,0,0,0,0,0,0,0,0,0,0,0,0.6441764884205446,0.031431130341426174,-0.06572221108939778,-0.39992649554330056,3.2587333153168334,3.2583076665768225,0.511394144462841,-3.0756138772504182,-0.39361021442535093,0.05160971303101933,3.2593383502171456,3.2588556598252842,41850105
0,0,0,0,0,0,0,0,0,0,0,0,1.412675847134095,-0.05435125283613835,0.3744202225709226,-0.5663362701340043,3.258782095763933,3.2590763520093384,0.2489077387938188,-2.732046500688374,-0.072701355540914,0.07443424158504505,3.259085006604791,3.2593029450539284,41851161
0,0,0,0,0,0,0,0,0,0,0,0,-0.3125795975422379,0.3892597066473611,0.18555846042137866,0.7544470494326412,3.2585979889152035,3.25856809122182,0.5386175678512535,-2.0406611610247087,-0.07256406218577173,0.17240544228618648,3.2594296168601056,3.2592002700805986,41852218
0,0,0,0,0,0,0,0,0,0,0,0,1.5970722314205443,-0.7341028492573319,1.5331568638273314,0.6744124978080389,3.259067697413885,3.2587608526660024,1.209544230645207,-1.8227175978085515,0.9827993372439547,1.0121986046074156,3.259472889837371,3.2590413402368235,41853275
0,0,0,0,0,0,0,0,0,0,0,0,0.2579419562747426,0.5061179883620724,-1.3805019951465123,1.0580746481507597,3.2585562895007474,3.2587136457817127,1.8531577769705982,-1.5702980602142882,1.2748844593625615,1.352133804814077,3.258964629049853,3.2591227721122227,41854331
0,0,0,0,0,0,0,0,0,0,0,0,0.8463887508378923,-0.07126272574218818,-0.7881590590666603,-0.29293169891020043,3.2592639993743893,3.2587557385868715,0.7972361561341471,-2.0356359881920802,1.5088488589345048,0.02230289248262554,3.259492952763194,3.259525997582197,41855388
0,0,0,0,0,0,0,0,0,0,0,0,0.889431594542455,-0.29976725575533575,-1.0153508443058543,-0.7981212852145774,3.2585920880546673,3.2587883900151713,-0.8702309811390615,-1.1756630630091505,0.042301302230513364,-0.12755418152262943,3.2592514108719124,3.258938271872791,41856444
0,0,0,0,0,0,0,0,0,0,0,0,0.9684810958482141,-0.08178986093877089,-0.543975549218124,-1.2150418657114346,3.2586538503949463,3.2587423633029893,0.07502511442006998,-3.0485690532409015,0.4202876115188135,-1.0661324699082932,3.259319860854132,3.259156210321928,41857501
0,0,0,0,0,0,0,0,0,0,0,0,0.41349414747883645,-0.07435477666315754,-0.4172411939193241,-0.9000008225441959,3.2589138816492413,3.2584567616530373,-0.6537413899590241,-3.1536641661720473,-0.7786917184223793,-0.6393173264643343,3.259134180442593,3.2591754864663462,41858558
0,0,0,0,0,0,0,0,0,0,0,0,0.8856432420782139,-0.036023573401400256,-0.6068283685241185,-0.744557993955373,3.258765179963729,3.2586538503949463,-0.7275485667644223,-3.247559052414781,-0.497239160208602,-0.2957133645669656,3.25899846065026,3.2590397666740136,41859614
0,0,0,0,0,0,0,0,0,0,0,0,0.49061131365434096,-0.26386248634606435,-0.6124766722293701,-0.06052748686402879,3.2591129373446623,3.2589272569331236,-0.2685749135702745,-3.0602193188928744,-0.13505378187343856,-0.1306025660756309,3.2590983818886734,3.2591558169312256,41860671
0,0,0,0,0,0,0,0,0,0,0,0,0.48306214607502773,-0.2883695469343122,-0.2216229464558299,0.43485093532215774,3.2586133311525973,3.2586027096036325,-0.2636626438692383,-3.068589099477422,-0.20874136790530295,-0.04406526614013506,3.259254164606829,3.259155030149821,41861728
0,0,0,0,0,0,0,0,0,0,0,0,0.5394027756932706,-0.33168028970721836,-0.5974778649184542,0.28498638689355693,3.2589976738688557,3.2588776897046197,-0.033465747054308305,-2.769437106780661,-0.2396862673385462,0.1692126833453993,3.259290356551451,3.25878484949885,41862784
0,0,0,0,0,0,0,0,0,0,0,0,0.1792449330383459,0.9210940386169002,0.15943613760902137,-1.1258649141627446,3.2588654945928446,3.258822615006282,0.667313762582989,-2.083111558331437,0.150667852242929,0.5189661287028943,3.2591628979638694,3.2593938183061857,41863841
0,0,0,0,0,0,0,0,0,0,0,0,0.6083197126769677,0.48926827779630155,-0.4052360898537743,-0.606303585327099,3.2588654945928446,3.2585287521515784,1.5213283921871652,-2.916526283803735,0.18472289856945256,-0.15476619658067184,3.2595354389590545,3.259166438480191,41864897
0,0,0,0,0,0,0,0,0,0,0,0,0.9688390813874103,0.08709473456081564,0.004345787089560877,0.2862483842668991,3.258804125643268,3.258655423957756,0.44338515322031413,-2.0779605004740356,0.2647519427242211,0.6380549357002896,3.25907989252566,3.2592309545553864,41865892
0,0,0,0,0,0,0,0,0,0,0,0,0.7806523776832077,0.1813810445524507,0.054555029219988484,-0.27613902999627943,3.258848578792641,3.258270294460093,2.5702858174187915,-3.2269638689713322,2.0941355459851674,0.0626171782752488,3.2593060921795476,3.259144015210153,41866886
0,0,0,0,0,0,0,0,0,0,0,0,0.4516664208968187,0.06403574514815152,-0.16323943891995418,-0.18390818642475443,3.258564944096201,3.2590004276037723,0.8001987815140225,-1.9465152915138353,0.6512944997900127,0.3031213048841125,3.259109003437638,3.259263212592985,41867880
0,0,0,0,0,0,0,0,0,0,0,0,0.7874934419981768,-0.1474341806690908,0.058569974728819696,-0.8001771450253897,3.2586711595858526,3.2582990119813693,1.1066800363874478,-2.0226800587987968,0.7980622766092154,0.44592094968807094,3.2591573904940354,3.259201056862003,41868875
0,0,0,0,0,0,0,0,0,0,0,0,1.6585320542492932,0.21268983038542633,-0.12567810126281992,-0.45114203109050166,3.258881230220941,3.258638508157552,0.844595676016292,-2.1988404153395193,0.5642442183785699,0.0359720392193841,3.259561402745414,3.2591983031270866,41869869
0,0,0,0,0,0,0,0,0,0,0,0,0.49995355605525443,0.25775273534688176,0.036326090851556164,0.19046482926187863,3.2585857938034284,3.2585106561792676,0.4217400099921238,-2.4207387352870384,0.004063332565228052,-0.2265910776366088,3.2593202542448347,3.2591034959678047,41870863
0,0,0,0,0,0,0,0,0,0,0,0,0.7948297852074843,-0.08459080273995433,-0.10320841112237109,-0.6074227818754652,3.2588123868480188,3.2588068793781853,-0.0027962211127544774,-3.0618200256609946,0.4486797986840962,-0.039147095578562684,3.2595130156890173,3.259286422644427,41871858
0,0,0,0,0,0,0,0,0,0,0,0,0.46035406116891636,-0.09874696716630067,0.15974298235690382,-2.038707976187226,3.258929617277338,3.258850545746153,0.5001219272758873,-2.7249804168916243,0.031005088210712458,0.4575830170611163,3.2590802859163626,3.259257705123151,41872852
0,0,0,0,0,0,0,0,0,0,0,0,-0.5588103126061335,1.1342185657284933,-1.7083569536634629,1.8547356670779784,3.2585857938034284,3.258422536661927,0.9155873555645174,-2.9797394489931404,0.8608643485145984,-0.08773792835926156,3.259305698788845,3.2590964149351613,41873846
0,0,0,0,0,0,0,0,0,0,0,0,-0.06245077400812793,0.30463310535348714,-0.11911359061164743,0.0010944129341140907,3.2588615606858204,3.2586916159023778,0.37584705064857604,-2.158469087895046,0.1908342231314448,-0.22302381074712402,3.2591247390657347,3.259016163231869,41874841
0,0,0,0,0,0,0,0,0,0,0,0,0.4200008296967542,-0.18060724504080355,0.26666067441233093,-0.33512206496263325,3.258559043235665,3.2589186023376704,0.9432281664881904,-2.0698641264276656,-0.9113528980437395,0.029686442576222726,3.2592278074297676,3.2591294597541642,41875835
0,0,0,0,0,0,0,0,0,0,0,0,0.32620114400400446,-0.08278041872744782,-0.18314736880628688,-0.07538309995926618,3.258672733148662,3.258586973975536,0.6712567175932785,-0.8980366227670458,1.8752226680782638,-0.11721272673758587,3.259476823744395,3.2592175792715046,41876829
0,0,0,0,0,0,0,0,0,0,0,0,1.3175252577692578,-0.3305638468937691,-0.23987076757797807,-0.21065993436097316,3.2588847707372626,3.259018916966786,0.12196567320414461,-1.8617698862278325,0.4851010900856364,0.37774358722491114,3.259031112078561,3.258820254662067,41877824
0,0,0,0,0,0,0,0,0,0,0,0,0.9501518428506663,-0.9832717994775532,-0.6530745927184334,-0.5554027623418286,3.259001214385177,3.2587038110141524,0.3331724206414724,-1.7986129759088725,0.27867954715246523,0.6223975923535338,3.2594008993388295,3.25913693417751,41878818
0,0,0,0,0,0,0,0,0,0,0,0,1.1009518743696063,-0.9620251610309077,-1.1564447470241483,-1.0369043275003824,3.259031112078561,3.258678634009198,0.004488981305239356,-2.716581132004396,-0.08396649169522424,0.5604735684959374,3.2590079020271183,3.258834416727354,41879812
0,0,0,0,0,0,0,0,0,0,0,0,0.8955208892251121,-0.6909097303044474,-1.031949964994188,-0.875821063020356,3.2586998771071283,3.258835596899461,0.4279909882534728,-2.4533197466516192,-0.008747435658864457,0.28051196104430687,3.259210498238861,3.25911411751677,41880806
0,0,0,0,0,0,0,0,0,0,0,0,0.22003325462737736,-0.6769530149642247,-0.47682808361388246,-0.36957876319632094,3.258953614110185,3.2586711595858526,0.23914653529483498,-2.500514829220155,-0.3534804288721596,-0.05163764377089068,3.259206170941135,3.259230167773982,41881863
0,0,0,0,0,0,0,0,0,0,0,0,-0.024114850057941683,0.7426134637133436,-1.1404420066406733,1.2333329598108482,3.2585991690873106,3.25876203283811,0.5541596477222023,-2.48658053714997,-0.20587945054524545,0.9206023002388835,3.25923960915084,3.2588595937323084,41882920
0,0,0,0,0,0,0,0,0,0,0,0,0.9699885690198622,-1.5622842982154248,2.1166642447309787,-1.563114352597517,3.2587750147312895,3.258548815077402,1.2430205992484806,-2.359918565740414,0.5311620272591147,0.8554143137233631,3.2588871310814773,3.2592659663279013,41883977
0,0,0,0,0,0,0,0,0,0,0,0,0.7399517822208144,-0.017305256999165654,-0.43255589396427796,-0.1270219239022641,3.259092087637435,3.258853692871772,0.8281070981153367,-2.143777125332013,-0.9007722617116286,0.5786600206685091,3.2592431496671614,3.259313173212191,41885033
0,0,0,0,0,0,0,0,0,0,0,0,1.1996477007445931,0.17326028028253082,-0.37337695042812236,0.019534995500444827,3.258341891567932,3.2586927960744854,2.2552856868846045,-3.254774624678448,1.8121180787227247,-0.2827928403368998,3.2593273352774776,3.259262819202282,41886090
0,0,0,0,0,0,0,0,0,0,0,0,0.7145662801940774,0.27296279346499364,0.5473897871243699,0.22423073342212838,3.258939452044898,3.2588104198945067,-0.1982173798343396,-2.178862461908157,0.14186691544853633,0.14955140942947978,3.258968956347579,3.259080679307065,41887147
0,0,0,0,0,0,0,0,0,0,0,0,0.3760209293390428,0.6170132538096016,0.8721912470091875,-0.13463718111958278,3.2586396883296596,3.2587608526660024,-0.008453572804161645,-3.2507518113555682,-0.2873872503503859,-0.6252095490943848,3.259499247014433,3.259450073176631,41888203
0,0,0,0,0,0,0,0,0,0,0,0,0.6257469207938815,0.5016038300518786,0.3787970875259742,-0.8444524818006136,3.258701450669938,3.2589551876729947,0.47506608665777283,-3.0017252685696203,0.27520236673383314,0.1447902017581703,3.259184534452502,3.2589091609608127,41889260
0,0,0,0,0,0,0,0,0,0,0,0,1.08597745728224,0.4697785222266343,0.19393217491295037,-0.6817681171617648,3.258769900652158,3.2588387440250806,0.7218723323192993,-2.723788836454014,0.4322226920393338,0.18559622592881034,3.2590322922506676,3.258953614110185,41890317
0,0,0,0,0,0,0,0,0,0,0,0,1.0353260440022996,0.22064340360682053,0.052919704070055966,-0.7336036364559694,3.2587203334236543,3.2584717104997285,0.1724522557797737,-3.0285962138886706,0.04678280911240686,-0.5269543203061009,3.259276194486164,3.2590948413723515,41891373
0,0,0,0,0,0,0,0,0,0,0,0,1.0550235098628413,-0.3028494719087448,-0.464623530462209,-0.43299885189519544,3.258673519930067,3.2589032601002765,-0.10291966234679965,-2.7054658777077054,-0.05028437975458857,0.03365772171708604,3.259109396828341,3.2587781618569087,41892430
0,0,0,0,0,0,0,0,0,0,0,0,1.578351161283393,-0.6908090222846296,-0.7006142855422837,0.15704786265466958,3.259018916966786,3.2587293814098093,0.5060640938358418,-2.704039836411457,0.38800439691595995,-0.3150862830980162,3.259383196757221,3.2596668314536608,41893487
0,0,0,0,0,0,0,0,0,0,0,0,0.6509534300510204,0.1455167943855279,-0.32734433738521784,-0.947947674745044,3.2591668318708935,3.258868641718464,0.2379057810194231,-2.2358632011250497,0.15341844003420355,0.5634287194524669,3.2589437793426246,3.258880443439536,41894543
0,0,0,0,0,0,0,0,0,0,0,0,0.6329495111643685,-0.05500270783933494,-0.39498747527450023,-1.269663377960131,3.258588940929048,3.258653457004244,1.3503155529875221,-3.0630108193172,1.936561326570669,0.4306707657183129,3.2593898843991616,3.259278161439676,41895600
0,0,0,0,0,0,0,0,0,0,0,0,1.0136702792251442,-0.09504162014026882,-0.2875485405383754,-0.2082287798200583,3.259166438480191,3.2585657308776055,0.14396093415748287,-1.5958523268523606,-0.7733357040090207,0.7948569291659509,3.258967776175472,3.2590783189628505,41896657
0,0,0,0,0,0,0,0,0,0,0,0,0.5725254860550745,-0.27228891519175946,-0.2122405782032702,0.4202400112438215,3.25907989252566,3.2585145900862917,0.27360087318430815,-2.5848314386405273,0.0634944395416307,-0.03666204651141721,3.2596027087691675,3.259169192215108,41897713
0,0,0,0,0,0,0,0,0,0,0,0,0.3967262621791675,-0.3375315830149153,-1.0237725524631205,0.4717482294736182,3.2585326860586026,3.25835133294479,-0.1549849218112137,-3.094891988622187,-0.45290599500012335,0.00752517074646601,3.2587883900151713,3.259037012939097,41898770
0,0,0,0,0,0,0,0,0,0,0,0,0.2957444424324563,-0.5309838212709214,-1.5013579131791488,0.4042856579167435,3.2587852428895525,3.2586613248182923,0.1429074338564198,-2.5385627911761746,0.10229417112996234,0.06717933025113705,3.2590444873624427,3.259088547121113,41899827
0,0,0,0,0,0,0,0,0,0,0,0,0.6818039157156843,-0.651720148530024,-1.2826200941348187,-0.026078263053686983,3.258645195799493,3.2583957860941632,-0.07573636481003342,-1.9505794108604682,0.19957143063204652,0.005298579370806142,3.259319074072727,3.2590173434039764,41900883
0,0,0,0,0,0,0,0,0,0,0,0,0.8469273027094963,-0.4720708098495972,-0.3094722043838744,-0.03513765753956527,3.2585177372119114,3.2591322134890808,0.6810969926234475,-1.6977487799821829,0.5567666479070958,0.7856193286918793,3.259285635863022,3.259028751734346,41901940
0,0,0,0,0,0,0,0,0,0,0,0,0.437241570620724,-0.5458355004591346,0.21989556788153267,0.3311240352540058,3.2589386652634937,3.258562977142689,0.512141980188129,-2.780532691542231,-0.09907859552843516,0.5126880064830788,3.259507114828481,3.2593753289431726,41902997
0,0,0,0,0,0,0,0,0,0,0,0,-0.4391876744255631,0.6449046546107118,0.46855665070493824,-1.064488490162908,3.258847005229831,3.258679027399901,1.0949986928699842,-2.8676380476520116,0.06684534154478806,0.7659375984594343,3.25904409397174,3.2590637635068607,41904053
0,0,0,0,0,0,0,0,0,0,0,0,1.2390237497119603,-0.3023357036513929,-0.21909580458352618,-1.1533707920754899,3.2586227725294554,3.2588045190339705,1.2395670222719934,-2.9244055061823735,-0.36985216973449825,0.7494403659630258,3.2593906711805665,3.259343464296277,41905110
0,0,0,0,0,0,0,0,0,0,0,0,0.84559292144691,0.16711079682240446,-0.05402473855313522,-0.37378961727495397,3.2591149042981744,3.2586503098786244,0.5753362626238182,-2.6351268333347835,0.3081669340332668,-0.43549924319973504,3.259271080407033,3.2593418907334675,41906166
0,0,0,0,0,0,0,0,0,0,0,0,0.8861479623494103,0.03458494360267444,0.4108548892563449,-0.2630745247691303,3.2584363053365113,3.2585897277104525,0.43704566205092216,-2.084871194943332,-0.2547507708967651,0.8402015018703343,3.2591558169312256,3.2587742279498846,41907223
0,0,0,0,0,0,0,0,0,0,0,0,1.1536914054979568,0.039683287105952154,0.18609111143244642,-0.19327953973764653,3.2585645507054983,3.2587368558331553,0.9783638570742436,-2.501989650963503,0.3444324427166513,0.6026426914504399,3.259177060029156,3.2590417336275257,41908280
0,0,0,0,0,0,0,0,0,0,0,0,0.26590575765439955,0.2540871207817937,0.3365020795466994,-0.28066066272981915,3.259104676139912,3.258904833663086,0.6511190475367364,-3.1713561262316854,0.20616819932081693,-0.07218601372075244,3.2592722605791398,3.2588371704622707,41909336
0,0,0,0,0,0,0,0,0,0,0,0,0.5212607766700716,0.02587488006053925,0.18599551749175994,-0.9026251319199958,3.258809633113102,3.2586436222366837,0.11133940355055374,-2.63714099373114,-0.010194326662340958,0.15782716963615054,3.2592309545553864,3.259406406808663,41910393
0,0,0,0,0,0,0,0,0,0,0,0,0.8775649640041546,-0.4618465854938728,1.0634137467639144,-1.2624206617379976,3.2589772175523297,3.2590043615107964,0.7662892897473919,-2.158049733406273,0.5421195318841376,0.29652138906972275,3.259023637655215,3.2587160061259275,41911450
0,0,0,0,0,0,0,0,0,0,0,0,1.6367330952564592,-0.777421066453584,1.1429400376009984,-0.42710153187531613,3.2587978313920294,3.258531112495793,0.640919606795264,-2.099342858713014,0.35639938788406705,-0.032105008614660334,3.2593765091152798,3.259191222094443,41912506
0,0,0,0,0,0,0,0,0,0,0,0,0.6836595396589683,0.8037790302966868,0.5031415943076126,-1.1266760857911213,3.2586817811348174,3.2586023162129303,0.6215203310871519,-2.316223873641953,0.5009830595234703,0.334316794194793,3.2591007422328877,3.2590413402368235,41913563
0,0,0,0,0,0,0,0,0,0,0,0,1.4947033160571235,0.4433096222054508,-0.5681466541465109,0.22245378761932702,3.258725447502785,3.258813960410828,0.5853413683582984,-2.3279901895511377,0.6196635269717606,-0.13620641663150984,3.259054322130003,3.2591294597541642,41914619
0,0,0,0,0,0,0,0,0,0,0,0,-0.02457472378906295,0.08935161702056134,-0.10358213228966381,-0.2796142434613995,3.2587923239221954,3.25837572316834,0.556232029942516,-2.6603892040716652,0.6897334921042313,-0.8252699643695312,3.259274227532652,3.2594280432972957,41915614
0,0,0,0,0,0,0,0,0,0,0,0,0.2564199276471052,-0.08426232150343912,-0.14759940476410444,-0.28767560573525497,3.258616478278217,3.2584587286065494,-1.1114538325612346,-1.4750510901273595,-1.1842590432475857,2.338017718555655,3.259222693350636,3.2587577055403836,41916608
0,0,0,0,0,0,0,0,0,0,0,0,0.7225269344481151,-0.24604149413603474,-0.32757761807174895,-0.00495632945970648,3.258459515387954,3.2586884687767586,-0.31037267570169874,-1.912890614615752,0.3870008572341033,0.6223767426463058,3.259060616381242,3.2593182872913227,41917603
0,0,0,0,0,0,0,0,0,0,0,0,1.002022373917386,-0.3858997566580482,-0.30255285531912507,0.021537747566431467,3.25917115916862,3.258699090325724,-0.11821233251241832,-2.6822200277113946,0.670723279800806,-0.3389981435535125,3.2592879962072363,3.2595370125218643,41918597
0,0,0,0,0,0,0,0,0,0,0,0,1.5264054925925126,-0.3957667822559812,-1.1100671303352274,-0.35168381353423755,3.2585027883652193,3.25870499118626,-0.43337217967178576,-2.979142675297579,0.1799923753729314,0.05183591268490704,3.258880050048834,3.2589622687056385,41919592
0,0,0,0,0,0,0,0,0,0,0,0,1.2185383222744848,-0.5537717644896226,-1.09529137555258,-0.49254994303583416,3.2588717888440835,3.2588462184484266,0.7641551451867991,-2.274854120594754,0.641651313501753,0.6345517914952983,3.2592765878768666,3.2594355177206418,41920586
0,0,0,0,0,0,0,0,0,0,0,0,0.005834770898195612,-0.7931063405402112,-0.9413328100839626,-0.10676977715131963,3.2588104198945067,3.2588320563831394,0.4121570124813333,-2.955899185645483,-0.28843366961880557,0.39889699207508467,3.2593961786504004,3.2592073511132416,41921581
0,0,0,0,0,0,0,0,0,0,0,0,1.0097056877262218,-1.1237646012025595,-0.34720033969883196,-0.0989562510199846,3.258934337965767,3.258981938240759,-0.1923633327917257,-3.1691220604326795,-0.4735826103189719,-0.13796133255497603,3.25946462863262,3.2592907499421537,41922575
0,0,0,0,0,0,0,0,0,0,0,0,0.0909472097095501,1.2764946075075396,-1.7068388589428494,0.8161865730508057,3.2587435434750964,3.2585838268499163,0.3823950388902472,-2.840975599405241,0.30875977382180375,0.18135901467311558,3.259033472422775,3.2589036534909788,41923570
0,0,0,0,0,0,0,0,0,0,0,0,0.11571548172420044,-0.806031585458706,0.18591919969549173,-0.7662711937750808,3.2583265493305382,3.258405227471021,0.6333078900942671,-2.9938173286697065,0.1968055006033779,0.5255204111958041,3.2588957856769305,3.2591479491171773,41924564
0,0,0,0,0,0,0,0,0,0,0,0,0.9320350208324218,-0.13748847693067515,-0.2276221546676343,-0.9901089298854981,3.25911411751677,3.2586542437856485,0.7552743500798165,-1.9292230164078492,0.20643649177986284,1.048306757009835,3.259318680682025,3.25935054532892,41925559
0,0,0,0,0,0,0,0,0,0,0,0,1.265231044916039,0.4065295584833095,-0.4661530335131923,-0.2969187136791603,3.2589327644029575,3.2587313483633213,2.0248149901407944,-3.0738601414990594,0.8796058749682755,0.07784729931918373,3.259028751734346,3.2589103411329194,41926553
0,0,0,0,0,0,0,0,0,0,0,0,0.7266115101112735,0.049117189540528,-0.5186215184475801,0.21988651989537714,3.2590464543159547,3.2586628983811017,0.7697385394261526,-2.2053891903625953,0.8637105302465593,0.7995394586967777,3.259582252452642,3.2594012927295317,41927548
0,0,0,0,0,0,0,0,0,0,0,0,0.8216204788232421,0.3469698127472177,0.274046978240845,0.8332790056799656,3.2589567612358046,3.2587219069864637,1.2406378317639626,-2.1665347774666284,1.1069011219622042,0.8512675823292234,3.2591628979638694,3.2590283583436435,41928542
0,0,0,0,0,0,0,0,0,0,0,0,0.7800481295643006,0.41039226179030674,1.1085313330330053,0.3770516129793659,3.258756918758978,3.258874542579,1.5846068602331709,-1.9154150027531387,0.9824441054396755,1.5596060943133943,3.258841497759997,3.2591463755543675,41929537
0,0,0,0,0,0,0,0,0,0,0,0,1.165409334350745,0.6716969217892792,0.40994576334306754,-1.28623732164351,3.2588930319420135,3.2587962578292196,1.240123276725206,-1.9906379926965228,0.6488039432530335,0.6275478634295301,3.2593564461894564,3.2595381926939715,41930531
0,0,0,0,0,0,0,0,0,0,0,0,0.6560521669450005,0.3694343888085352,-0.18989441274337918,-0.6095518123569265,3.2584315846480827,3.258531505886496,0.35524557295388853,-2.8330637255983024,0.4304182088873635,0.3716955985660074,3.2590385865019065,3.258871002062678,41931588
0,0,0,0,0,0,0,0,0,0,0,0,0.6451686197720313,0.36206460738952245,-0.8759375066682704,-0.700819242098241,3.258941025607708,3.2587809155918257,0.7392346309703148,-2.260334463159378,0.680855844122868,0.013292278443846516,3.25913693417751,3.2588178943178523,41932644
0,0,0,0,0,0,0,0,0,0,0,0,1.3963410849977833,-0.9651439625196412,-0.5397823977210995,0.6205643916802873,3.2588588069509035,3.25857949955219,0.34828177073976646,-2.0659778196785235,0.4034615043951874,-0.30352846426111035,3.2588178943178523,3.259291536723558,41933701
0,0,0,0,0,0,0,0,0,0,0,0,0.012067259796531176,0.3150512713255013,-0.23603127432242324,-0.7088180552504129,3.258656604129863,3.2588076661595897,-0.10728079167375464,-3.198983561871476,0.08235831050375825,-0.8676908573735782,3.2594115208877943,3.2591861080153115,41934757
0,0,0,0,0,0,0,0,0,0,0,0,0.4957973832842568,-0.008879221544172948,-0.5879574165293475,-0.5106144440906577,3.258878476486024,3.2589288304959334,-0.2655847508412303,-2.0387984560487813,-1.2343447606974554,0.6210765863748295,3.2591314267076763,3.2592423628857565,41935814
0,0,0,0,0,0,0,0,0,0,0,0,0.6881441936664812,-0.2952424758961768,-0.3950653666335781,0.1510840596060824,3.2585787127707855,3.258496887504683,-1.651897520053091,-2.0317579426476886,-0.15636257605106543,-0.19857969267126235,3.259002001166582,3.2592958640212846,41936870
0,0,0,0,0,0,0,0,0,0,0,0,0.7020950081461678,-0.17688655577737755,-0.3802671885808931,-0.14710923994889735,3.258883590565156,3.258727414456297,-0.4804043984895227,-3.0464290078197727,-0.17843651514488637,-0.7500324189701579,3.2594803642607166,3.2592167924900997,41937927
0,0,0,0,0,0,0,0,0,0,0,0,-0.4177360794229602,-0.8527046385651396,-0.5131817118146076,-0.09359197540187542,3.258657390911268,3.2590842198233867,-0.543521576347539,-2.984207187200449,-0.22976141330735841,0.1610541535680477,3.2589728902546033,3.25908972729322,41938983
0,0,0,0,0,0,0,0,0,0,0,0,0.11563050933247915,-0.7431311658777197,-0.827339592854928,-0.36439859442694117,3.2590023945572844,3.2585082958350533,-0.15362378998086332,-3.1013506771744104,-0.04750468105133546,0.42659523804131005,3.2590743850558264,3.259232134727494,41940040
0,0,0,0,0,0,0,0,0,0,0,0,-0.032774166199465535,-0.6773224088337909,-0.8564064450748496,-1.0056266195328973,3.25853543979352,3.2585448811703777,0.014304472721156205,-2.959554178661606,0.0007934690467678363,-0.1785895441281252,3.259161717791762,3.2592451166206735,41941096
0,0,0,0,0,0,0,0,0,0,0,0,0.4710885132656709,-0.016825713732923714,-0.8411145616906359,-0.3773136111871732,3.2591270994099495,3.2587415765215844,-0.1170522233310012,-2.8190385602758594,-0.11320092835437397,0.12565371103927028,3.2590724181023143,3.2588206480527697,41942153
0,0,0,0,0,0,0,0,0,0,0,0,1.5642233209876204,-0.2773546072667369,-0.17661314923920024,-0.24550844973426458,3.25893158423085,3.2586569975205655,0.3483159957308764,-2.5965871330007473,0.6304581678459844,0.4758442134671465,3.2591302465355687,3.259378869459494,41943209
0,0,0,0,0,0,0,0,0,0,0,0,-2.099347579401443,2.7142880576000277,-1.1840588073800573,-0.5049413567711539,3.258906800616598,3.258582253287107,0.43848271828683827,-2.833693150722164,-0.11005262256295949,0.33441042118196734,3.2591007422328877,3.2589681695661747,41944266
0,0,0,0,0,0,0,0,0,0,0,0,1.0084901104557644,-0.11855261547000592,0.027452376777217003,-0.7584753702253544,3.2589174221655632,3.258898539411847,1.0539491598545503,-3.195427309921659,-0.1522543969457623,0.23101908338297406,3.25938634388284,3.25900160777588,41945322
0,0,0,0,0,0,0,0,0,0,0,0,0.8417581488797842,0.2968132849709135,0.24101514113129865,-0.18001007795454,3.258537406747032,3.258160931844822,0.662571044274693,-3.0253141552584357,1.3830082873115883,-1.2001559615321113,3.258906800616598,3.259007508636416,41946379
0,0,0,0,0,0,0,0,0,0,0,0,0.5312387384460853,0.28445570283600125,0.9814500071346768,-0.2947499507367552,3.2587223003771664,3.258761246056705,0.981680534086291,-2.130797985887287,0.38861297233259345,0.6523318710722769,3.259644408183623,3.2592156123179925,41947435
0,0,0,0,0,0,0,0,0,0,0,0,0.9653642613129927,0.11897905099142206,0.42010075093516713,-0.2530733529416743,3.2587191532515467,3.258680994353413,0.8922962656374294,-2.487016414048244,1.2723325338760059,1.0851816278912576,3.258775408121992,3.259002001166582,41948492
0,0,0,0,0,0,0,0,0,0,0,0,0.2091032873515233,-0.312658669073423,0.42907123912230005,-0.18393021630408957,3.2586857150418416,3.2583320568003717,1.5877775892946229,-1.77686476431665,1.558747322410026,1.059962923522344,3.2591648649173814,3.2592411827136494,41949548
0,0,0,0,0,0,0,0,0,0,0,0,0.35682228288916146,0.07484926877609119,-0.20507496655881005,-0.019843413811136936,3.2586558173484583,3.2589418123891125,1.2653364736242858,-2.2189572356888334,0.5432178787252758,0.6457630331233779,3.259025604608727,3.259252197653317,41950605
0,0,0,0,0,0,0,0,0,0,0,0,0.3655083495984494,-0.2906095135938541,0.2115596188973926,-0.1086383829877833,3.2590724181023143,3.2584626625135735,0.7636803226089862,-2.1854061228521013,0.4015925051680213,-0.34465195472859794,3.259016163231869,3.2588757227511076,41951661
0,0,0,0,0,0,0,0,0,0,0,0,0.710314120091691,-0.09349008720995035,-0.5492351829093912,0.7138231651572186,3.2589205692911825,3.258824581959794,0.04100901377308533,-1.8494048296695744,0.0374893471585926,0.016669931014768005,3.2595165562053388,3.25950042718654,41952718
0,0,0,0,0,0,0,0,0,0,0,0,1.5845529657069404,-1.0384727762309045,1.6843502860486848,-2.563633580640981,3.2588776897046197,3.2584036539082115,0.4071275123509779,-1.82450713211383,0.8183423541000311,0.7310941971652742,3.259127492800652,3.2591499160706894,41953774
0,0,0,0,0,0,0,0,0,0,0,0,2.490357874674544,0.15665565212436344,-0.887913893212544,-1.2051146513360322,3.258910734523622,3.258649129706517,0.966816659786303,-1.3535511915148726,0.49213216210987115,1.2756897301304018,3.259411914278497,3.2593363832636335,41954831
0,0,0,0,0,0,0,0,0,0,0,0,1.3398458528334918,-0.2468711551274246,-0.2587971876617894,-0.8116680874428853,3.258810026503804,3.2587266276748927,1.038418094923269,-2.5978282806668616,0.5610455585772465,0.19111667765577764,3.2593080591330597,3.259322221198347,41955887
0,0,0,0,0,0,0,0,0,0,0,0,0.42449610525323217,0.005466163810034253,-0.22797266578348466,-0.42854488236247085,3.2587301681912146,3.2587518046798474,-1.1638684229693916,-1.1740615694596255,-1.4545491402803825,1.0830506304562844,3.2592384289787324,3.258706958139772,41956943
0,0,0,0,0,0,0,0,0,0,0,0,0.6203617954685444,0.0042202954554910015,-0.14021270754488796,-0.8451369816228129,3.25859248144537,3.2582722614136053,-0.09774460765655131,-3.1796114301218306,-0.010913838257055074,-0.7445080333361666,3.2588383506343783,3.2590724181023143,41958000
0,0,0,0,0,0,0,0,0,0,0,0,0.6718393292235528,-0.716065492160975,-1.122445168786665,-0.6121438636951284,3.2585330794493053,3.258872575625488,-0.7182063243635087,-3.24338281671796,-0.3858706457460696,-1.0359527153912442,3.2590397666740136,3.259085006604791,41959056
0,0,0,0,0,0,0,0,0,0,0,0,0.0009370566531487289,-0.26258829386094734,-0.4918516745390504,-0.0373044535284583,3.2590224574831073,3.258981151459354,-0.30364372773691745,-3.012301970994707,0.26492778836819986,-0.6553487843690853,3.2591727327314297,3.2591349672239978,41960113
0,0,0,0,0,0,0,0,0,0,0,0,0.767908092487823,-0.8178549430197408,-1.227030447367483,-0.20694711291159545,3.2587718676056703,3.2585956285709887,-0.17998018026115659,-2.9778488132773413,0.46075020560624663,-0.0999660849530798,3.2591330002704857,3.2590873669490055,41961169
0,0,0,0,0,0,0,0,0,0,0,0,1.3071932443610719,-0.7125013723971095,-0.49760658712465605,-0.9343756955117817,3.258959121580019,3.2589347313564696,-0.2344073575028607,-2.593741738050191,0.038175813934303984,-0.5059083111176862,3.2593021582725235,3.259029538515751,41962226
0,0,0,0,0,0,0,0,0,0,0,0,0.16158837814192512,-0.5376077339181583,0.12521586718748418,0.2505827964046951,3.259106643093424,3.258800978517649,-0.32113348497551497,-2.9968967910881985,0.4788571928569308,0.6136706130111947,3.259200663471301,3.259391064571269,41963282
0,0,0,0,0,0,0,0,0,0,0,0,0.6905360091371546,0.16806083536873284,-0.7794368004127503,2.5008606196475767,3.258810026503804,3.258893425332716,0.6393185066364414,-2.680462751443714,-0.24091718684639774,0.4596888374911353,3.2591149042981744,3.2589968870874504,41964338
0,0,0,0,0,0,0,0,0,0,0,0,1.0816957928771727,-0.4005897522675696,-0.15426934412352372,-0.10299047267323407,3.258885557518668,3.25905864942773,0.5692603432250432,-2.9712732876865013,-0.37749496430098584,0.800532376829669,3.2592624258115794,3.2594087671528778,41965333
0,0,0,0,0,0,0,0,0,0,0,0,0.9801010704161012,-0.11161044974451657,0.26581763813705894,-0.7679301223671582,3.258948500031054,3.25822741487353,0.5314149774807664,-2.0977275964889044,0.977839860658629,-0.11602940750472635,3.2590464543159547,3.2587777684662065,41966327
0,0,0,0,0,0,0,0,0,0,0,0,-0.006824935296170151,0.484743891327845,0.4459953005308271,-0.4492293654953677,3.258620018794539,3.2587616394474077,2.8560082383165644,-3.159564633317546,0.6490958391542242,0.7142067210920716,3.2592108916295635,3.2591444086008554,41967321
0,0,0,0,0,0,0,0,0,0,0,0,0.37495090662847835,0.21412373949572316,0.10350856822831252,-0.5062686570010968,3.2587120722189034,3.2586483429251123,1.2157657046038752,-2.2364281101737156,1.5010593296360168,0.8381751463622028,3.2591849278432043,3.259548027461532,41968316
0,0,0,0,0,0,0,0,0,0,0,0,0.2732503620684578,0.19396403955984587,-0.3023911717404332,-0.8458627874687656,3.2591298531448665,3.2588595937323084,1.3817144252913505,-1.1466760691018187,1.5175534150068062,0.7119518055858379,3.2594134878413064,3.259018130185381,41969310
0,0,0,0,0,0,0,0,0,0,0,0,0.8086023936989776,0.2693487130819217,0.19733893839585046,0.04217423703363383,3.258675486883579,3.2586377213761475,1.1713849391204048,-1.7595091533075753,0.6977094885956631,0.6186049125915661,3.2590023945572844,3.2595342587869474,41970304
0,0,0,0,0,0,0,0,0,0,0,0,1.0847205739880292,0.5516305388963865,0.26094195377134727,1.4644338684599243,3.2588234017876863,3.2586821745255197,0.8335158268828184,-2.122528126541153,1.1765839906435,0.49304600871157744,3.2590472410973597,3.259197909736384,41971299
0,0,0,0,0,0,0,0,0,0,0,0,0.9945766680928073,0.4665483911691178,-0.06338114301933563,0.4522057595498275,3.2591259192378423,3.258730954972619,0.613299645578819,-2.249426132372157,0.44052559620447107,0.713337327639738,3.259264786155794,3.259311993040084,41972293
0,0,0,0,0,0,0,0,0,0,0,0,0.28787584160278334,1.6681056103832255,-0.6885651217180635,-0.16316312112368594,3.2585307191050905,3.2583772967311493,0.3769859167320629,-2.675507995546817,0.5514680685362897,0.2239707021678331,3.258915061821349,3.258757312149681,41973287
0,0,0,0,0,0,0,0,0,0,0,0,3.2455374175950786,-2.4450557881660204,0.7756630034044985,-0.9646298008715869,3.259145588772963,3.2586562107391606,0.25640143828409173,-2.5439715199436566,0.32143246190934915,-0.26645965176339764,3.259246690183483,3.2587836693267427,41974282
0,0,0,0,0,0,0,0,0,0,0,0,0.6265655668456038,0.17280198011421918,0.014788736675827106,-0.08367498918473591,3.2588186810992577,3.258727414456297,0.4966679569086977,-2.7786090110074295,0.5801002240300446,-0.5615660144765394,3.259053141957896,3.2592919301142604,41975276
0,0,0,0,0,0,0,0,0,0,0,0,0.012415017177464625,-0.016083778868172034,-0.1392213629748062,-0.4998371124073401,3.2589256833703137,3.25853543979352,-1.0103894007670164,-2.443690329037944,-0.7094998013376953,-0.1571418830325464,3.2591211985494133,3.2591097902190436,41976270
0,0,0,0,0,0,0,0,0,0,0,0,0.7226850775104853,0.04811758376569555,-0.6972016211988473,-0.10619582011649849,3.2587474773821206,3.2589217494632896,-0.2310847796302771,-2.867534585897277,0.7023743155448813,-0.15460490639268237,3.2591802071547753,3.2591392945217246,41977265
0,0,0,0,0,0,0,0,0,0,0,0,0.832720784273241,-0.8098262321741858,-1.1716131057278045,-0.5254952341908495,3.25893158423085,3.258494527160469,-0.503771806212879,-2.6236103205216312,0.2540623371675417,-0.7255544692938887,3.2590071152457134,3.259031505469263,41978259
0,0,0,0,0,0,0,0,0,0,0,0,0.8543053453332597,-1.235330204407001,-1.3088301430738143,-0.5242544799154377,3.2590193103574885,3.258965022440555,-0.5881230340150635,-2.9491611896945464,-0.044025533679191306,0.16656713087166916,3.259507114828481,3.259016163231869,41979253
0,0,0,0,0,0,0,0,0,0,0,0,0.8032581810066914,-0.9949098700177514,-0.888363932176105,-0.5871466382916734,3.258898146021145,3.258994526743236,0.577629337028186,-2.4263823183038613,0.6296843683343372,0.43331199089431655,3.2590944479816493,3.259273047360545,41980247
0,0,0,0,0,0,0,0,0,0,0,0,0.9832057098395478,-1.2686334811012125,-0.7325375476524291,-1.1548047011857867,3.2588674615463566,3.25859090788256,0.13600146007555247,-3.015019513966979,-0.353932828179935,0.3618521764102192,3.259094054590947,3.25878484949885,41981304
0,0,0,0,0,0,0,0,0,0,0,0,0.13123199119949233,-0.17689442359142582,-0.9828009108067645,-1.3282380733773795,3.258521277728233,3.2585716317381417,0.11635120109930051,-3.1599828076342114,-0.3547125285521184,-0.21155568499036848,3.2590138028876545,3.2592958640212846,41982360
0,0,0,0,0,0,0,0,0,0,0,0,2.2969292398606824,-1.6441020898940668,0.05762544365232511,-0.7674108466399725,3.2588234017876863,3.2589547942822925,-0.01872933134190218,-3.116766872020587,-0.4948264950307006,-0.04527218881513939,3.258824581959794,3.2590488146601695,41983416
0,0,0,0,0,0,0,0,0,0,0,0,-0.3259788782571409,-0.2648585516045751,-0.12346527856174451,-1.0588873933419458,3.2588403175878904,3.2589532207194827,0.67386175082466,-2.9015915991773125,1.1696555935925952,0.6777925107231749,3.259372181817553,3.2596353601974677,41984472
0,0,0,0,0,0,0,0,0,0,0,0,0.05391144203084016,0.06588507484019694,-0.008166004200697446,-0.15420758178324484,3.258906800616598,3.258561010189177,1.0474208411479997,-1.6427181414029766,0.4072089442263775,1.1036119822993256,3.259384376929328,3.259026784780834,41985528
0,0,0,0,0,0,0,0,0,0,0,0,0.845314007438899,0.06136462227876451,0.4479713020290496,0.4174768349500697,3.2592329215088984,3.258788783405874,1.7210142995136142,-3.2551503127992527,2.95675284346972,-0.9499339044015292,3.259191615485145,3.259222693350636,41986585
0,0,0,0,0,0,0,0,0,0,0,0,-0.0997780441973262,0.036138836877207384,0.43046148186462896,-0.5616250230819014,3.258909554351515,3.2587435434750964,0.5093213688518249,-2.060399932909004,0.49695395194935227,-0.03351964158053893,3.259372968598958,3.2592175792715046,41987641
0,0,0,0,0,0,0,0,0,0,0,0,0.8219277169618269,-0.10431305221474793,-0.4859830720404472,-0.9137828724125471,3.259126706019247,3.258710892046796,0.3643293576633164,-2.4853610259724883,0.5704959834213237,-0.6822547414606501,3.259120018377306,3.25888595090937,41988697
0,0,0,0,0,0,0,0,0,0,0,0,0.45858655674297294,0.0018929960600133013,0.3550949043148642,-1.5221513655366141,3.2588127802387215,3.2586038897757397,0.4587801049685603,-2.2962947006576897,0.5716832365612073,-0.05757981033084515,3.259220726397124,3.258981151459354,41989753
0,0,0,0,0,0,0,0,0,0,0,0,0.9858705384576962,0.08232565907545794,0.6663491685806714,0.2034793738698213,3.258786029670957,3.2586141179340027,0.8987785576317975,-1.875170740505545,1.1247154265302928,0.7610355569166608,3.2589862655384856,3.2590869735583032,41990809
0,0,0,0,0,0,0,0,0,0,0,0,1.1380505845607023,0.033763937206737656,0.03705071652540165,-0.18302659786064598,3.2588910649885015,3.2591947626107647,0.7018695952736848,-2.07212572957584,0.3463565166421552,1.9867686017475845,3.25911411751677,3.259064550288266,41991866
0,0,0,0,0,0,0,0,0,0,0,0,1.7610111190093898,-0.6157787937854282,0.04548225945022815,0.010963798876261577,3.2591247390657347,3.258715612735225,1.0130392805384731,-2.4902075994262214,0.5371675297221576,0.7395568179555915,3.259173519512834,3.2591412614752366,41992922
0,0,0,0,0,0,0,0,0,0,0,0,0.3092861305816329,0.7453837210397387,-1.1988617061211713,0.21892507301867878,3.2588871310814773,3.258905620444491,0.3007275224599269,-2.631493083416591,-0.22215245034127834,0.4878929839006643,3.2594760369629903,3.259374148771065,41993978
0,0,0,0,0,0,0,0,0,0,0,0,0.2628687814317681,0.36228608635498116,-0.06865021808746076,-0.49418526818576675,3.259204203987623,3.2587207268143565,-0.038119559063858874,-3.068167384644435,0.05357469958957429,-0.043994849204403066,3.2594182085297354,3.25928366890951,41995034
0,0,0,0,0,0,0,0,0,0,0,0,0.5343473117765559,-0.34756934017769575,0.15017336012999535,0.15296446716361847,3.2594012927295317,3.258953614110185,0.528117183222435,-1.7461397702860557,-0.82509372533485,2.5463535006467697,3.2591577838847376,3.259184534452502,41996090
0,0,0,0,0,0,0,0,0,0,0,0,0.8197813772894593,0.07259317309775032,-0.4670645197706842,0.36516767325015936,3.2586782406184955,3.2585806797242975,-0.7885607109738243,-0.571346100729239,1.9009236694483362,0.045962196107172504,3.259371001645446,3.259355659408052,41997146
0,0,0,0,0,0,0,0,0,0,0,0,0.6683861456377679,-0.6741154878277167,-0.26124171748658626,-0.19961785073493132,3.2588717888440835,3.2588371704622707,0.5844180803797341,-2.3417840411405613,0.5290227686193906,0.3894634830312112,3.259038979892609,3.2589512537659706,41998203
0,0,0,0,0,0,0,0,0,0,0,0,-0.3998749613612844,-0.19244909196485183,-0.10890077458629305,-0.42227069404967954,3.2588902782070965,3.2584229300526295,0.09236498980104801,-2.8676329335728803,0.5107395423340252,0.18158049363857431,3.2591920088758477,3.2590614031626464,41999259
0,0,0,0,0,0,0,0,0,0,0,0,-0.25753715724195925,-0.4180704615200116,-0.2908483017502191,-0.7451933199397707,3.2586798141813054,3.2588529060903673,-0.39138637678460797,-2.962365348621052,0.0907886732564775,-0.35347688835583785,3.259355659408052,3.259279735002486,42000316
0,0,0,0,0,0,0,0,0,0,0,0,0.37993123292103204,-0.10405931521169128,-0.5410270859035355,-0.416610195232653,3.2590079020271183,3.258682961306925,-0.8518320979871866,-3.2244921951880685,-0.6745383828328112,-1.0649062710888708,3.259319860854132,3.258909554351515,42001372
0,0,0,0,0,0,0,0,0,0,0,0,0.7089986215828206,-0.3415134837047438,-0.7281158361573024,-0.7163349647921282,3.2588316629924368,3.2589186023376704,-0.2813860751850694,-3.241784470294055,0.043202166939040054,-0.18240976123926175,3.2591983031270866,3.2594001125574246,42002428
0,0,0,0,0,0,0,0,0,0,0,0,1.466344567101546,-0.9754236549644058,0.7172122260585101,-1.223343196313762,3.25908972729322,3.2588737557975955,0.21967959638590767,-2.857546789353703,-0.019835939387791084,0.24834086279164108,3.2592785548303786,3.2592718671884375,42003485
0,0,0,0,0,0,0,0,0,0,0,0,-0.060546369617744636,1.1665666897972453,-0.4739618389560984,0.005573952862495525,3.2589378784820884,3.258734495488941,1.4617308809436416,-1.7210233474997696,0.7539627854779704,0.8233643798070406,3.259414668013414,3.2591129373446623,42004541
0,0,0,0,0,0,0,0,0,0,0,0,0.36480811414815356,-0.1861233694700443,-0.20142587440322332,-0.11769069644101816,3.2590342592041797,3.258989412664105,0.9506608904195892,-3.152302247560292,0.08015689613305284,0.40387102411639975,3.2591589640568452,3.2593029450539284,42005597
0,0,0,0,0,0,0,0,0,0,0,0,0.976456305558241,-0.017649867254479795,0.16502779305312548,-0.03854481441316776,3.258843464713509,3.2584669898113,0.5029138210909153,-2.257670814713337,1.250344353955311,0.0836568932124249,3.259130639926271,3.2591758798570485,42006654
0,0,0,0,0,0,0,0,0,0,0,0,0.5005389214204455,-0.028829637626366332,0.07527373734399524,-0.0759798736548273,3.2588851641279653,3.258727807847,0.6774770113798393,-2.16386837528567,0.2999887347207945,0.019491722523179354,3.259171552559322,3.2590759586186357,42007710
0,0,0,0,0,0,0,0,0,0,0,0,1.5595329236427453,0.35448947602384995,0.3119800701117599,0.08294760977597353,3.258909554351515,3.2589854787570807,0.6224314239539412,-2.4445254974991677,0.573186382435129,0.5119728221860912,3.258791537140791,3.259313959993596,42008767
0,0,0,0,0,0,0,0,0,0,0,0,0.6045647984224317,0.3887136803524113,0.1281336460272844,0.1120309844053965,3.25929665080269,3.2587226937678686,1.1480525431695632,-2.8709968174692175,0.6008625985220193,0.3724941816919066,3.2594229292181645,3.2592175792715046,42009823
0,0,0,0,0,0,0,0,0,0,0,0,0.4991478918967118,0.48142013328315414,0.13718045201068543,0.2356221479919133,3.2588363836808663,3.2588910649885015,0.5095263254077822,-2.9393543528740826,0.16007225037482384,-0.051165968318697005,3.259067697413885,3.258922929635397,42010879
0,0,0,0,0,0,0,0,0,0,0,0,0.886008702040756,0.3675587019394281,-0.09121274843367914,-0.23901002872109756,3.259069664367397,3.258832449773842,0.43416997601628016,-2.6295257365138216,0.5069582709024275,0.1653476196941876,3.2592482637462927,3.2594335507671297,42011936
0,0,0,0,0,0,0,0,0,0,0,0,0.6986323831835249,-0.14309704817498303,0.4232152251261741,-1.2256492526113096,3.259139687912427,3.2587443302565013,0.9749429315260567,-1.755744404285479,0.9007691145860093,1.172978171465179,3.259563369698926,3.259237642197328,42012992
0,0,0,0,0,0,0,0,0,0,0,0,-0.8943072789081667,1.357657797057366,-2.280257735283105,1.5388091014396073,3.2588076661595897,3.258717579688737,2.0187430046490435,-0.7337924639931278,2.0845844131212727,1.5104833973030325,3.2590527485671936,3.2586943696372948,42014048
0,0,0,0,0,0,0,0,0,0,0,0,0.09039685611687374,-0.3442546301191604,-0.6528751436323099,-0.35764919014563445,3.2590995620607806,3.2589248965889093,1.6513294638788059,-1.551130098239195,1.2099871885761246,0.796441506915272,3.2592553447789365,3.2593442510776818,42015043
0,0,0,0,0,0,0,0,0,0,0,0,1.608095825683573,-0.728569415637185,-0.3943285458479578,-0.8642451482111392,3.258902473318871,3.258610970808383,1.7189391635583833,-2.344500403940726,1.0703917110433234,0.922889473782715,3.2592392157601373,3.2590417336275257,42016037
0,0,0,0,0,0,0,0,0,0,0,0,0.7178750893920767,-1.0467512901724922,-1.120567514964046,-0.6403389621185018,3.2589846919756758,3.258971710082496,-0.9239111094368826,0.19804822183230184,-2.9984495041906243,1.5465305741465776,3.259112150563258,3.259186501406014,42017031
0,0,0,0,0,0,0,0,0,0,0,0,0.5159515757503004,-0.6119538559858627,-0.7903309691346846,-0.5781375978157041,3.2590452741438476,3.2589012931467645,-0.015351285380278275,-2.8913414110352287,0.7999060988314269,-0.15945266001852273,3.259164078135976,3.259287602816534,42018025
0,0,0,0,0,0,0,0,0,0,0,0,0.7767467947896474,-1.1952200883889303,-1.132728008357049,0.08147396820473292,3.259018916966786,3.258717579688737,0.18037160401005792,-3.0625953987354513,0.3342176597377848,0.24787390802787637,3.2590405534554185,3.2592514108719124,42019019
0,0,0,0,0,0,0,0,0,0,0,0,0.6580065319545902,-1.204031646732288,-1.4810219742085902,-1.308967043038254,3.2590519617857883,3.258951647156673,0.17415091683279474,-3.0979667303522502,0.02139219300653851,-0.3463065560229487,3.2596239518670975,3.259235675243816,42020014
0,0,0,0,0,0,0,0,0,0,0,0,1.0977772114011302,-0.7497078716406669,-0.7059628255322963,-0.7810858942372673,3.2589186023376704,3.2586487363158145,-1.0962563629455997,-3.201137769357892,-0.2972149368780776,-0.9413162876744613,3.259029538515751,3.259128672972759,42021008
0,0,0,0,0,0,0,0,0,0,0,0,0.37096743237584023,0.11820643165188212,-0.06731190291785036,-0.6569526382628248,3.259090514074625,3.2585598300170693,-1.0617131187573812,-2.938442473225888,0.04483041105632913,-0.4614783717964138,3.2593643140035047,3.259346611421896,42022002
0,0,0,0,0,0,0,0,0,0,0,0,0.2366465373809978,0.49992405175257343,0.2543384974406358,0.6617893769489976,3.258612937761895,3.258598382305906,0.3160752673238834,-2.609756280154738,0.22392546223705556,0.16608601404261755,3.259262819202282,3.25905550230211,42022996
0,0,0,0,0,0,0,0,0,0,0,0,0.3707978809831,-0.3513742150514382,0.7428872636422232,-1.0022851589065978,3.259051175004384,3.2588942121141207,0.9223741319625535,-2.4514708103502763,0.16342354576868362,0.26304029977802035,3.259046060925252,3.2588737557975955,42023990
0,0,0,0,0,0,0,0,0,0,0,0,0.2922951927536956,-0.0850156646985608,0.08350543779199573,-0.5340192239307432,3.2584886262999326,3.2588127802387215,0.7379521772804472,-3.246076362857385,0.14131695524656238,0.2482893286096249,3.2592738341419496,3.2593202542448347,42024985
0,0,0,0,0,0,0,0,0,0,0,0,0.7328786173914213,0.09862855656487424,-0.3140449779087279,-0.6816080071458824,3.2587836693267427,3.259108610046936,0.24551946467393213,-1.1797236418394617,-0.22474764880509956,0.00689535223190215,3.259355659408052,3.258879263267429,42025979
0,0,0,0,0,0,0,0,0,0,0,0,0.4541908090342055,-0.04837525467577632,-0.5473819193103217,-0.21005489946066136,3.2594048332458536,3.25905707586492,0.889009092928063,-2.3002156257886437,0.06319782295201098,0.3830417732050148,3.2595657300431404,3.2593403171706576,42026973
0,0,0,0,0,0,0,0,0,0,0,0,0.9286719237174896,-0.005916202773595187,-0.19884011731626,-0.25689514361562055,3.2587616394474077,3.258641261892469,0.78494623720005,-2.9278756055683615,0.039320580878326995,0.035629395917582025,3.259116084470282,3.2591699789965123,42027967
0,0,0,0,0,0,0,0,0,0,0,0,0.9610294891630994,-0.13873906597364735,-0.6083208928490749,0.2756488651810724,3.259126706019247,3.259167618652298,0.3562613077475199,-2.843514542998617,0.2848695498549401,-0.28405719805445645,3.2592199396157193,3.2589776109430324,42028961
0,0,0,0,0,0,0,0,0,0,0,0,0.5174075147399324,0.017725791660045582,-0.00417977621314242,-0.4561546154206533,3.2587301681912146,3.2585326860586026,0.32156660813887217,-2.5403078723320807,0.34089507352054993,0.25459498817860937,3.2593422841241697,3.2593375634357407,42029955
0,0,0,0,0,0,0,0,0,0,0,0,0.8978906748164505,-0.27073541530792894,0.1588322828808168,-0.028339472811159228,3.2588379572436756,3.2586530636135413,0.8950027936700335,-2.2590150307434835,0.5405137110368861,0.7414230634478406,3.2593293022309897,3.2589032601002765,42031012
0,0,0,0,0,0,0,0,0,0,0,0,1.230294410025407,0.13854040366892859,0.230142608897997,0.4053151613849593,3.2590464543159547,3.2588627408579276,0.7406303811824775,-2.49165803094602,0.24531254116446272,0.5926088681946835,3.259381623194411,3.2592392157601373,42032068
0,0,0,0,0,0,0,0,0,0,0,0,1.9967839356403274,0.004566479273614797,-0.12226976421711018,0.4259866626246765,3.2588851641279653,3.2584697435462164,0.5372351929229727,-2.4929318300404346,0.5033351425332001,0.703729153123993,3.259085793386196,3.259126706019247,42033125
0,0,0,0,0,0,0,0,0,0,0,0,-0.8357255024582746,1.1738758890480863,-0.2664214928652635,-0.09298812067367083,3.2589976738688557,3.258881230220941,1.5440522127213732,-1.9106341255467085,0.9632143811243034,0.7657790620063617,3.2593918513526736,3.2594060134179608,42034181
0,0,0,0,0,0,0,0,0,0,0,0,0.6003090978037235,0.043969672199448605,-0.07303377068445333,-0.5960557575292298,3.25908972729322,3.2589217494632896,0.9731081572900006,-2.952250880271301,1.0825144389288948,-0.4320614018513443,3.259229380992577,3.2591188382051985,42035237
0,0,0,0,0,0,0,0,0,0,0,0,1.0018296124732033,-0.05242049126869336,0.15302150881546842,-0.4024146917360653,3.2591314267076763,3.2588556598252842,-1.0737520544233388,-2.353818649508792,-0.316261341126125,0.6247260719211187,3.2595763515921057,3.2591585706661426,42036294
0,0,0,0,0,0,0,0,0,0,0,0,-0.3662915904869545,-0.08536853615862562,0.3273195537709657,-0.20390698956334466,3.2586192320131335,3.2586998771071283,-0.7835135082618603,-2.7223781373951597,0.6036509518207254,-0.4200106644643145,3.2594233226088667,3.2593509387196224,42037350
0,0,0,0,0,0,0,0,0,0,0,0,-0.3260681779465887,-0.3961743350236815,-0.35514447154336826,-0.8717541899388063,3.2590873669490055,3.2592565249510432,-0.3480854687792621,-2.6470072325476686,0.2014899970877167,-0.5266714723910656,3.2594020795109366,3.259232528118196,42038406
0,0,0,0,0,0,0,0,0,0,0,0,-0.10695821129777565,-0.4202522063555963,-0.5801419234445003,-0.4862560851879221,3.2588473986205333,3.258723480549273,-0.2727920619001462,-2.951784318898239,0.33480735240070253,0.0064232833890060645,3.2594237159995694,3.2591019224049953,42039463
0,0,0,0,0,0,0,0,0,0,0,0,0.22137471692260705,-0.5388960884685622,-0.19697544538682046,-0.21073546537583654,3.258892638551311,3.258669979413745,-0.22120241179494995,-1.6662920792450997,0.4995314478315649,-0.0518669905503977,3.2588678549370593,3.258872575625488,42040519
0,0,0,0,0,0,0,0,0,0,0,0,-0.1349259298951542,-0.23613591624926522,0.13462970669623692,0.4513308586276601,3.2589827250221637,3.259021670701703,0.2595111917866697,-3.1754395217227365,-0.46315500297009976,0.2675768813582517,3.2592734407512474,3.2592262338669578,42041576
0,0,0,0,0,0,0,0,0,0,0,0,-0.18604823184588334,-0.2793880438075118,0.19443768196555158,0.8529693905078638,3.2586215923573483,3.258695943200104,0.5430074146994847,-2.895143532174054,0.21839950304025446,0.7250540763204187,3.259156997103333,3.2591589640568452,42042632
0,0,0,0,0,0,0,0,0,0,0,0,-0.762297554290003,0.74689984880684,-0.04846180063030727,-1.4236565618105603,3.2588053058153754,3.259110577000448,0.9787568543859546,-2.751135391132282,0.4928084007273198,0.3181850216609265,3.259550781196449,3.258968562956877,42043688
0,0,0,0,0,0,0,0,0,0,0,0,1.8324056306368863,-0.34946312301911386,0.04869429453543359,-0.020237591294955167,3.258946533077542,3.258428437522463,0.35709883655295804,-2.8884586439679434,-0.7456897790062164,0.1786308501518786,3.2595039677028614,3.2594060134179608,42044745
0,0,0,0,0,0,0,0,0,0,0,0,1.115881051526195,0.13014544607942655,-0.2810638881997929,-0.6402630377129361,3.2590244244366193,3.2588206480527697,0.3520614686085544,-2.7141181128165854,-0.2885599480342803,1.066927512517871,3.2593017648818208,3.258969743128984,42045801
0,0,0,0,0,0,0,0,0,0,0,0,0.8416432787946794,-0.45819434621266675,-0.8897105085504661,-0.8178348800939178,3.2587313483633213,3.2589559744543997,0.70758202166343,-2.829383555577225,-0.2541819279410753,0.0063390977786895964,3.2593230079797513,3.259263212592985,42046857
0,0,0,0,0,0,0,0,0,0,0,0,1.4094740402071522,-0.5500817597009849,-1.0133406178165218,-1.263124044313913,3.258990592836212,3.2585712383474394,0.2942389362143202,-2.572899111854924,0.3730598775219771,-0.05530601207089567,3.2590197037481907,3.2590968083258636,42047914
0,0,0,0,0,0,0,0,0,0,0,0,0.4967788930867783,-0.6913755048961049,-0.9993968843694787,-1.330153099316728,3.25853386623071,3.2587856362802547,1.0360003156662363,-1.9723445382528946,0.840421013882281,0.30918738951532715,3.2593690346919337,3.2590153764504644,42048970
0,0,0,0,0,0,0,0,0,0,0,0,0.8434221915509929,-0.24592505048812036,-0.8280807409382749,-0.9331852952462786,3.2589256833703137,3.258734495488941,0.7819017865540726,-2.2872124895110715,0.7684289417778184,0.8037357573194214,3.258922142853992,3.259307665742357,42050026
0,0,0,0,0,0,0,0,0,0,0,0,0.4109595311831869,-0.18345460694487176,-0.19322525182071348,-0.8708816493608533,3.258784062717445,3.2587730477777774,1.549624592021059,-1.9581419537236635,1.1674817165710587,1.5543252175241966,3.259673125704899,3.2591392945217246,42051083
0,0,0,0,0,0,0,0,0,0,0,0,0.9999102592361282,-0.284840832333664,0.14162930746427863,-0.17942825310567057,3.2590090821992255,3.2586912225116755,1.3357526225748804,-1.9142006056547887,0.17899985063074236,0.5544066970833178,3.2594850849491457,3.2590987752793756,42052139
0,0,0,0,0,0,0,0,0,0,0,0,0.80483253059775,-0.6493035494450986,2.5949612492276724,-1.1078484067736158,3.2590641568975633,3.258695943200104,0.44399687576256697,-2.294002806425429,0.2892137633816914,0.4633501247584968,3.259176666638454,3.259197122954979,42053195
0,0,0,0,0,0,0,0,0,0,0,0,0.5661541302387869,1.6960666413386634,-1.574552580660889,0.48954168433447887,3.258546061342485,3.2587836693267427,-0.2182338855545384,-2.033884219394233,-0.1249027281883631,0.6920312871970281,3.2595075082191833,3.2593914579619714,42054252
0,0,0,0,0,0,0,0,0,0,0,0,1.1018047454124387,-0.23627714351143161,-0.19423665931661835,-0.46978914377559944,3.258989412664105,3.2589437793426246,0.3565174050947911,-2.7965149756091803,0.5593260478169975,-0.3586141775386545,3.2594233226088667,3.2590067218550107,42055308
0,0,0,0,0,0,0,0,0,0,0,0,0.37616018964769715,-0.47957552427953765,-0.3504544675891957,-0.10585357020539882,3.2587502311170375,3.258470136936919,0.6332905809033609,-2.562297232424883,-0.616613962246652,0.23543922131529108,3.2593013714911185,3.2593993257760197,42056364
0,0,0,0,0,0,0,0,0,0,0,0,0.9836038212303901,-0.5491722403970051,-0.8571617552234835,-0.03625134661809762,3.2586510966600293,3.258821434834174,-1.982876000747204,-2.150886482106028,-1.011303247368723,-0.12428471139487164,3.2590374063297993,3.2590999554514832,42057421
0,0,0,0,0,0,0,0,0,0,0,0,0.46778796527242245,-0.3780047986513136,-0.5640105443013363,0.06478122052922493,3.258531505886496,3.258795471047815,-0.24499114096059094,-2.211896659361918,0.40127385869906645,-0.09165846009951353,3.259134180442593,3.259117264642389,42058477
0,0,0,0,0,0,0,0,0,0,0,0,0.675002583861659,0.09163328309455908,-0.5942736976472971,0.1951623076393971,3.258721513595761,3.2585220645096378,-0.4668182571909734,-2.7607183886430726,0.11466119464173252,-0.860107464803155,3.2594544004743575,3.2595181297681486,42059533
0,0,0,0,0,0,0,0,0,0,0,0,0.09431266716869677,0.022685661636073783,-0.2284931216827776,-0.4779988143442648,3.258992559789724,3.259092481028137,-0.7067020066621311,-2.6587062786467404,-0.16185273669394692,-0.25286878977641936,3.259174306294239,3.25928366890951,42060590
0,0,0,0,0,0,0,0,0,0,0,0,0.5278201732421128,-0.5973279830608348,-0.2494750081866989,-1.0145003336072365,3.2587053845769622,3.258752591461252,-0.14630278900894986,-2.5069562085814723,0.28133100048673154,-0.1490828811029054,3.25971561190076,3.259343070905574,42061646
0,0,0,0,0,0,0,0,0,0,0,0,-0.1336780945870989,-0.3828383902118671,-0.31005048871642216,0.21780548307961023,3.2589488934217563,3.2588348101180564,0.19235271124276054,-3.118287327085415,-0.1332607070518383,0.36904925931087246,3.258714432563118,3.2588906715977988,42062702
0,0,0,0,0,0,0,0,0,0,0,0,0.08656523067536719,1.2990587114165677,-1.5516741575806328,0.45211960698599896,3.2589378784820884,3.2587997983455415,0.7439266018779994,-2.7206299091136343,0.488998411774446,0.8315095343005101,3.259311599649381,3.259473676618776,42063758
0,0,0,0,0,0,0,0,0,0,0,0,-0.21804033732895103,-0.8616298868214949,-0.5081872234567669,-0.55156916994681,3.258856053215987,3.258503968537327,1.1189711354936522,-2.8410456229502703,0.2598459672744235,0.9468497212946082,3.259149129289285,3.2590488146601695,42064815
0,0,0,0,0,0,0,0,0,0,0,0,-0.1327630678132853,-0.05757587642382102,-0.31582743118136297,-0.22772522303166662,3.2586188386224313,3.2586691926323406,1.261746390074061,-2.5782767627569156,0.7172212740446655,1.268116172327539,3.259199089908491,3.259108610046936,42065871
0,0,0,0,0,0,0,0,0,0,0,0,1.5068437465243036,-0.178431401065755,-0.1822878101215136,-0.9393989013908983,3.259051568395086,3.2587093184839864,0.7798954939717643,-2.256459564740606,0.42344575207778834,-0.07850268822940447,3.259108610046936,3.259382803366518,42066928
0,0,0,0,0,0,0,0,0,0,0,0,1.0506084860096556,-0.21012256266147644,-0.09717930521718326,-1.3519894304262914,3.258645982580898,3.258433944992297,0.6645710426057627,-2.53913910855521,0.060715921010484813,0.41605079365382114,3.259466595586132,3.259077925572148,42067984
0,0,0,0,0,0,0,0,0,0,0,0,1.0696312868155582,-0.03117857351047677,0.07930087796460127,0.5841037612085057,3.258995313524641,3.258898539411847,0.9095318924822678,-2.4922473302182353,0.1195294045840984,0.6024216058756835,3.2592974375840944,3.25931789390062,42069041
0,0,0,0,0,0,0,0,0,0,0,0,0.5934680334887544,0.05604519320073047,0.2973345276516113,0.3231043723946061,3.25922662725766,3.258706171358367,0.6070171960612769,-2.333052341109793,0.45627577975699657,0.5259079010376813,3.259281701955998,3.259321827807644,42070097
0,0,0,0,0,0,0,0,0,0,0,0,0.6351580065677174,0.46975216504957257,0.6207512522639337,-0.5893771635743574,3.258986658929188,3.258678634009198,1.0477288660679895,-2.009531367961331,0.6662940938823335,0.5405837345819157,3.259588940094583,3.259509081781993,42071154
0,0,0,0,0,0,0,0,0,0,0,0,0.581897232758669,0.6010388375567004,0.15782756302685297,-0.17490937410704782,3.2590232442645126,3.2589937399618316,0.5671930750838607,-2.608845580678651,0.4055787331555763,0.05483394322799959,3.259298617756202,3.2592089246760514,42072210
0,0,0,0,0,0,0,0,0,0,0,0,1.0161285777245255,0.40581634113983406,0.5501281798038696,0.4034276727947798,3.2585712383474394,3.2585696647846296,0.34671686252556594,-2.4873877748713227,0.11814152218598391,0.362709374750778,3.25940758698077,3.25905550230211,42073266
0,0,0,0,0,0,0,0,0,0,0,0,2.6772802206611894,0.044534187857411846,-0.5134681002459646,2.9025255087048416,3.2588678549370593,3.2586896489488657,0.37840015630723906,-2.7683061085112226,0.5069480427441647,0.3748112529291216,3.259417815139033,3.2591015290142926,42074323
0,0,0,0,0,0,0,0,0,0,0,0,0.023994865893705593,0.01321163334985177,-0.47930959216470626,-0.9368040963177795,3.2586286733899916,3.2588206480527697,0.9111219777014228,-2.8002742171614425,0.3660870273216995,0.1557390517877402,3.259149522679987,3.25900003421307,42075379
0,0,0,0,0,0,0,0,0,0,0,0,0.6304483330784241,-0.10341100733411399,-1.1449239069132693,-1.0207465911801565,3.259206564331837,3.2588454316670212,0.2399423646858173,-2.976828357795281,1.6804773545834248,-0.3708816732027141,3.259492952763194,3.259385557101435,42076436
0,0,0,0,0,0,0,0,0,0,0,0,0.7227893260466248,-0.5810762263627322,-0.9253878981337426,-0.24581096718442047,3.2586227725294554,3.2588682483277616,-0.9529858294708525,-0.2498526632610158,-1.9731250254064827,0.5406305480755029,3.259201056862003,3.2593293022309897,42077492
0,0,0,0,0,0,0,0,0,0,0,0,0.20001871586069056,-0.48319078483471684,-1.1373896881806478,-0.8127809897400128,3.2591062497027217,3.258767540307944,-0.17844438295893464,-2.0862468822296716,-0.3274592074703225,-0.2640041069989332,3.2592718671884375,3.2592990111469042,42078549
0,0,0,0,0,0,0,0,0,0,0,0,-0.36478136358038943,-0.49941697113716255,-0.2917405118632927,-1.0560301966703172,3.2589245031982066,3.2591188382051985,-0.2155619759037466,-3.2076979527113383,-0.38785136793272107,-0.29863940461151656,3.259252197653317,3.259493739544599,42079605
0,0,0,0,0,0,0,0,0,0,0,0,-0.2185061119206085,-0.8100988519309582,-1.0822233298091088,-1.2513034404877947,3.259087760339708,3.25864952309722,-0.17543140356915038,-2.7416153361338775,-0.2556811399079728,0.0358371062084563,3.2594512533487383,3.2592199396157193,42080661
0,0,0,0,0,0,0,0,0,0,0,0,0.30123617663814745,-0.8473427232912448,-1.1061505325019994,-0.6394715356196803,3.2587533782426568,3.25878484949885,-0.06611874891743051,-2.893293415700604,-0.3103821170785566,-0.36277467760737864,3.2590621899440513,3.2591003488421855,42081656
0,0,0,0,0,0,0,0,0,0,0,0,-0.26543447559290834,-0.5582796285485778,-1.1682106695426309,-0.707510817946293,3.2585094760071605,3.258642442064576,0.03686346255105287,-2.8003521085205203,-0.11653648812013723,0.4453261429460219,3.259075171837231,3.2590747784465286,42082650
0,0,0,0,0,0,0,0,0,0,0,0,1.1214353348535697,-0.6080510268272193,0.10318716802444076,0.13687636099771988,3.258909947742217,3.2587136457817127,0.6505915106048,-2.808861149413722,0.1959427947929853,0.2734022108795894,3.259504361093564,3.2594197820925452,42083645
0,0,0,0,0,0,0,0,0,0,0,0,-0.041343395870136725,2.1597291183148766,-0.32210437322907126,0.380194804691649,3.258999640822368,3.258671552976555,0.4260885508166016,-2.4232926277271067,-0.2028405073691019,0.19029763821335294,3.2592699002349255,3.2592935036770703,42084639
0,0,0,0,0,0,0,0,0,0,0,0,1.10768121572509,-0.037962596173595924,0.08167420407226134,-0.9290617739035814,3.2588068793781853,3.2587026308420457,1.0482969222422747,-2.7981825587967104,0.11363680525264802,0.3019844057541377,3.259431190422915,3.2591054629213168,42085634
0,0,0,0,0,0,0,0,0,0,0,0,0.7098227751043766,-0.2756740421860268,-0.16145108478678283,-1.207676018199446,3.258926076761016,3.2587817023732306,0.15943889134393827,-0.21016622902944432,-0.5598677468142208,1.3340016405584383,3.2595751714199985,3.259364707394207,42086628
0,0,0,0,0,0,0,0,0,0,0,0,0.6022201898360479,-0.05122969761248798,0.059244246392756265,-0.996510970176574,3.258928043714528,3.258489413081337,2.85784458611543,-2.2348266166241904,1.7177621385767625,1.0176155945796481,3.258867068155654,3.2592077445039442,42087623
0,0,0,0,0,0,0,0,0,0,0,0,1.162059612519695,-0.5274456652934152,-0.512298156296987,-0.6136824147322671,3.2592738341419496,3.2589441727333273,1.1976823207953358,-1.5227984932420842,0.8341039459829265,0.8101374042197947,3.2595059346563735,3.2596341800253605,42088617
0,0,0,0,0,0,0,0,0,0,0,0,0.7809741712777818,-0.37728332010308746,-0.3395587253044516,0.09563052602178168,3.2587148259538203,3.2586046765571446,1.3705437029056196,-1.4980428097299108,0.8459505135954037,0.6780490014611484,3.25900160777588,3.2588843773465603,42089612
0,0,0,0,0,0,0,0,0,0,0,0,0.6277921590557287,0.31457054788715216,-0.6723873224720147,0.2512987674830875,3.2589386652634937,3.2587462972100134,0.8781660649974423,-1.8348300975358602,0.2673664173324605,0.4288871322735705,3.2593395303892527,3.2593867372735423,42090606
0,0,0,0,0,0,0,0,0,0,0,0,0.8879902110088123,0.5403897929656258,0.3874347671788653,0.017053486949621076,3.2590169500132737,3.258800978517649,0.38398748445361663,-2.7624339654962973,-0.45695595228146935,-0.21280902776825758,3.2592592786859607,3.2593658875663145,42091601
0,0,0,0,0,0,0,0,0,0,0,0,1.0951572293230567,0.5722878780708167,0.358452887350665,0.7291543876116737,3.258967776175472,3.2587773750755042,0.29700919354071537,-3.0863715393986153,-0.08516318621196582,0.21766228886393174,3.2591522764149037,3.2592270206483622,42092595
0,0,0,0,0,0,0,0,0,0,0,0,0.31942970984336255,-0.17936098329555786,0.8465858395798015,-0.25413865496380983,3.2591534565870113,3.2591357540054027,0.36578450987154365,-2.979396805691338,0.041523568811842056,-0.29118504419148494,3.25915817727544,3.259230561164684,42093590
0,0,0,0,0,0,0,0,0,0,0,0,0.7424848249536543,-0.3297684108934892,0.25445808821416954,0.17497074305662427,3.2587742279498846,3.2587537716333594,0.22320083656321005,-2.7710952485913336,0.453189236305861,-0.3495343267362507,3.2591377209589147,3.2592144321458854,42094584
0,0,0,0,0,0,0,0,0,0,0,0,0.20513122142925516,-0.1006734014360191,0.3539635126547232,-0.5409472275909457,3.2588847707372626,3.2588674615463566,0.23513906420934966,-2.311895395743298,0.45716917004217744,-0.6011670829256871,3.2591204117680084,3.2592459034020784,42095579
0,0,0,0,0,0,0,0,0,0,0,0,0.3415925552359289,-0.11297669565399833,-0.3970673319181599,-0.461448080712328,3.2587687204800506,3.25881907448996,0.5934849492889582,-2.6143172519585196,-0.1512693466269191,1.596918809046603,3.259361560268588,3.2591794203733704,42096573
0,0,0,0,0,0,0,0,0,0,0,0,0.08328081170091768,-0.12268990548728768,-0.568550273007187,-0.9776301834142426,3.259059042818432,3.2584315846480827,-0.6700852000814914,-2.63816302277601,0.35036870841606954,-0.030132547632759524,3.259320647635537,3.258937485091386,42097630
0,0,0,0,0,0,0,0,0,0,0,0,0.4401499080836663,-0.18265877755388946,-0.6528719965066905,-0.14586809228278305,3.2586613248182923,3.2587396095680723,-0.2760985107539309,-2.3531880442128235,0.3180843136411087,-0.23198761129231588,3.258905620444491,3.2592938970677725,42098686
0,0,0,0,0,0,0,0,0,0,0,0,0.5417139460699494,-0.0071451553279346615,-0.4848375183150194,0.28456978613970113,3.258905620444491,3.2585763524265707,0.03451964074607381,-2.787413881708846,0.2688856922251811,0.16311866797431324,3.2592789482210813,3.259217185880802,42099743
0,0,0,0,0,0,0,0,0,0,0,0,0.27263391883777605,-0.22984874604329417,0.11977488038240436,0.5474806603766275,3.2590063284643085,3.2584382722900234,0.24482985077260144,-2.221308531917159,-0.01735679118118181,0.3304395354318065,3.2593635272221,3.2589634488777453,42100799
0,0,0,0,0,0,0,0,0,0,0,0,-0.20064932115665923,0.6064011462212975,0.20442901902544725,0.10259983570573755,3.2587183664701422,3.258603496385037,0.1998110055698163,-2.742391102599037,0.34293008362413446,1.0252941877000556,3.259370608254743,3.2590708445395045,42101856
0,0,0,0,0,0,0,0,0,0,0,0,0.783222005751372,-1.2436409763861864,0.8713993515252293,-1.144228785542105,3.2591652583080837,3.258879263267429,0.8643328743377774,-2.6821275808963274,-0.0001758456439787917,0.736344782870386,3.2595098685633976,3.259435911111344,42102912
0,0,0,0,0,0,0,0,0,0,0,0,0.5798673367342159,0.3366145892875897,-1.0638169722338882,2.7347911876191127,3.259193189047955,3.258843858104212,0.778808555460996,-2.8252010256291658,0.21154585022280814,0.6646501141369479,3.259012622715547,3.259160144228952,42103969
0,0,0,0,0,0,0,0,0,0,0,0,0.7163550277179512,0.0991852044087892,0.5139905230987696,-0.2970992800115681,3.2591270994099495,3.259031505469263,0.9252738148300427,-1.7462318237104206,-0.06418956091279518,0.7201300048983102,3.2594068001993657,3.2594787906979072,42105025
0,0,0,0,0,0,0,0,0,0,0,0,1.0510498703777633,-0.47822816112377176,-0.29606820298054254,-0.7004345059912808,3.258799011564137,3.2587514112891447,1.1061784632418707,-1.998329961100812,-0.8407581497142492,2.055235893158423,3.2590814660884693,3.25905550230211,42106081
0,0,0,0,0,0,0,0,0,0,0,0,1.4075224289324795,-0.2757381648705202,-0.37248080640802456,-0.9121735110489739,3.258756918758978,3.258588154147643,0.1068331130544082,-3.0603196335219898,-0.45060662634451704,-1.3143808858848673,3.25921521892729,3.259040160064716,42107138
0,0,0,0,0,0,0,0,0,0,0,0,1.2852459770734281,-0.42874747857421375,-0.8091220628168658,-0.928631404475141,3.2588828037837505,3.2591038893585074,0.3028754356951041,-2.51983306644357,0.21405135560647912,0.03691027604464007,3.2591861080153115,3.2592195462250166,42108194
0,0,0,0,0,0,0,0,0,0,0,0,1.3048203116441144,-0.6285856281024966,-0.6403244066625126,-0.47542800610399316,3.258725840893488,3.2588682483277616,1.2912833441833669,-1.7540264670880397,0.8107888592229914,0.8603497934758417,3.2594791840886095,3.2589551876729947,42109251
0,0,0,0,0,0,0,0,0,0,0,0,1.0339515368880674,-0.48090046416526605,0.2554384178445837,0.4682317099847448,3.2590149830597617,3.2588033388618634,1.0723551240390685,-2.1500816047288898,0.4292592798780536,0.45830016831161596,3.259343070905574,3.2591479491171773,42110307
0,0,0,0,0,0,0,0,0,0,0,0,0.40685331903139577,-0.1082154879826889,0.33262757451862984,-0.2585107992304324,3.2588887046442867,3.258843858104212,0.8123907461632187,-1.8517533721629824,0.786847494464814,1.0148618596627543,3.259469742711752,3.2591947626107647,42111364
0,0,0,0,0,0,0,0,0,0,0,0,0.4867313011564375,-0.23445377760574548,0.5508748353570504,-0.37507757843465545,3.2592116784109684,3.2592187594436117,0.8652856666190226,-2.1524041834359386,0.30356544298713717,0.7165088434825949,3.2593623470499926,3.2591542433684157,42112420
0,0,0,0,0,0,0,0,0,0,0,0,0.6836473445471936,1.31202919626584,-1.3104725492563902,0.10835317472853359,3.2587407897401794,3.2586821745255197,0.7955075973877427,-1.573283108864201,0.858658213455464,1.1478873190745496,3.2594524335208455,3.2589488934217563,42113476
0,0,0,0,0,0,0,0,0,0,0,0,1.921125855580074,-0.4605169249197155,0.3647475319799819,-0.8597703289711867,3.2586806009627103,3.2585582564542594,1.343699114763631,-2.108920742144673,0.8261845977526423,0.8253502160728234,3.259405620027258,3.2591672252615957,42114533
0,0,0,0,0,0,0,0,0,0,0,0,0.23048367863698943,-0.27210677529654204,-0.32849303823626497,-0.17122684374175592,3.2588147471922335,3.259040160064716,1.0221907284487162,-1.6980194327854432,1.2536614243580608,1.0931139580147218,3.2592179726622073,3.2592053841597295,42115590
0,0,0,0,0,0,0,0,0,0,0,0,0.036980299589669655,-0.1849235278276834,-0.44814124681249223,-0.7314069427736929,3.2586255262643724,3.258610970808383,2.216982020972016,-2.451780802223778,0.4722041692977153,1.8391747044533138,3.2590444873624427,3.258929617277338,42116646
0,0,0,0,0,0,0,0,0,0,0,0,0.5351195377253934,-0.9815318324007788,-0.7228801992988824,-1.1095214974309797,3.2586806009627103,3.2591243456750325,-1.8901404369044823,-0.7752113908781278,-0.21871500238359,-0.4045728331295053,3.2594544004743575,3.259547240680127,42117703
0,0,0,0,0,0,0,0,0,0,0,0,-0.06671788295720613,-0.9999397635388092,-1.0630282238755493,-1.2508207500959336,3.2588588069509035,3.2585865805848337,-0.237597362708731,-3.0580234119920027,-0.21956393951939815,-0.2413176585814546,3.25915817727544,3.259021670701703,42118759
0,0,0,0,0,0,0,0,0,0,0,0,0.6400439190916918,-0.9572761484713731,-1.1781972859140974,-0.5989861248715073,3.2590448807531454,3.2588088463316973,-0.5518170060893305,-2.848217135455267,0.037466530497852625,-0.5567756958932514,3.259381229803709,3.259322221198347,42119816
0,0,0,0,0,0,0,0,0,0,0,0,0.3371000334143678,-0.6425749948710197,-1.0426261952669853,-0.7431457213337088,3.258995313524641,3.2587246607213807,-0.8558568782635783,-3.0629762009353874,-0.4046869164332052,-0.9932269445928269,3.259232528118196,3.259298617756202,42120872
0,0,0,0,0,0,0,0,0,0,0,0,0.5048858886821137,-0.9343548458045536,-0.7401484775720211,-0.6508660973150846,3.2590043615107964,3.2590909074653274,-1.2917243351607721,-3.174579963037963,-0.651018732907621,-0.9921942939989917,3.2594363045020467,3.2593674611291243,42121929
0,0,0,0,0,0,0,0,0,0,0,0,0.04906801570272633,0.19839086513410392,-1.1436481408653425,-0.7858880145416276,3.258470530327622,3.2585747788637613,-0.46255193502330005,-2.6960304017103196,-0.3072031268123539,-0.22262884648190098,3.2590197037481907,3.259302551663226,42122986
0,0,0,0,0,0,0,0,0,0,0,0,2.6175422689369046,-1.8382982299683366,0.30066025264981416,-0.26274879726753203,3.258529932323686,3.258649916487922,-0.11004121423258952,-2.848318236865787,-0.5154102701437796,0.17768789263819368,3.259168405433703,3.259111363781853,42124042
0,0,0,0,0,0,0,0,0,0,0,0,0.24853047711020435,0.4567128368273779,0.7460638935642115,-0.45788946841829636,3.259160144228952,3.2588147471922335,0.26531488481937465,-3.0859616262867,0.30469722803798055,0.1524817767717572,3.259334022919419,3.2593194674634294,42125099
0,0,0,0,0,0,0,0,0,0,0,0,0.3694819890835272,0.479855618459656,0.9108143461721355,0.6013578774163576,3.2590393732833114,3.258322615423514,0.9346325796404575,-2.0313893355595276,0.61881419644525,1.7871165260215431,3.2591782402012632,3.259114510907472,42126155
0,0,0,0,0,0,0,0,0,0,0,0,0.9034901980746027,0.20532122913852083,0.5218591239284425,0.8752038330082694,3.258909947742217,3.2590802859163626,1.317400946307295,-1.4025098446023276,0.6698235952643865,1.4315247692495308,3.259206170941135,3.259324581542561,42127212
0,0,0,0,0,0,0,0,0,0,0,0,0.7803392386840865,-0.10472414549876993,-0.004006290913378108,0.46609205795431824,3.2587423633029893,3.258551962203021,1.714422644903975,-2.224054792410706,0.1628590301107204,0.5451490336834233,3.259267146500009,3.2591782402012632,42128268
0,0,0,0,0,0,0,0,0,0,0,0,0.7295835768680068,-0.2200061106689108,-0.23269610794736242,-0.11876425966790433,3.2587726543870748,3.258800978517649,0.6632815078832516,-3.0952720040407184,-0.25066029437307047,0.11746725052204735,3.2594008993388295,3.259233708290304,42129325
0,0,0,0,0,0,0,0,0,0,0,0,1.0414110113872301,-0.0679853878003821,-0.09216003324509063,-0.04460224444892936,3.258811600066614,3.2589603017521265,0.5461163814206579,-2.8625920251121553,0.42607202840710023,0.32025228980210896,3.2592494439184003,3.2592089246760514,42130381
0,0,0,0,0,0,0,0,0,0,0,0,0.8853505593956184,-0.02050588375400111,0.39829156378407043,-0.03806723810043789,3.2587219069864637,3.2585704515660345,0.7870469435509376,-2.334662095864069,0.2883195863151057,-0.15731733528582276,3.259262032420877,3.2590138028876545,42131376
0,0,0,0,0,0,0,0,0,0,0,0,0.12461279924068441,0.47594020079853544,0.6388389633701996,-0.1979443666868647,3.2589854787570807,3.2587486575542277,0.877154264110835,-1.8367758079499967,0.4004241347818535,0.6085982332942763,3.2593953918689955,3.259046060925252,42132370
0,0,0,0,0,0,0,0,0,0,0,0,1.504446030193094,-0.24624566391058728,1.7029848102313052,-0.8424422553112811,3.2586833546976273,3.258693976246592,0.8991451977664467,-1.5780451033169154,0.548806780434463,0.3764910312284268,3.2589359115285763,3.2593584131429685,42133364
0,0,0,0,0,0,0,0,0,0,0,0,0.4508123696818792,0.6765253992707012,-0.9139248864561184,1.2564607925964346,3.2590263913901314,3.258490986644147,0.8078380355641884,-1.6467830475310143,-0.09714468683537088,0.5744656889993773,3.25963575358817,3.2592167924900997,42134358
0,0,0,0,0,0,0,0,0,0,0,0,1.196456908757318,-0.3088628421858361,0.5733032194737457,-0.08521354022187473,3.258644409018088,3.25864952309722,0.45693549596494387,-2.002979839203338,0.40346543830221154,1.0145337718169416,3.259023637655215,3.259147162335773,42135353
0,0,0,0,0,0,0,0,0,0,0,0,0.3582223603990507,0.021809973932501545,0.07198656463462885,-0.005228555825776556,3.259083826432684,3.258907980788705,0.22882553682631693,-2.539052955991382,0.4815475918707361,-1.3017754676074347,3.2594933461538966,3.259558255619795,42136347
0,0,0,0,0,0,0,0,0,0,0,0,0.34397256898552997,-0.07942440264515908,-0.1275648030715946,-0.5026002887010919,3.258609790636276,3.2587966512199222,0.016409506369770333,-2.7100233089951646,-0.3013840915422548,-0.6928416720439997,3.2596188377879662,3.2595743846385936,42137341
0,0,0,0,0,0,0,0,0,0,0,0,0.19445892506348195,-0.3731664864023312,-0.4031330231586722,-0.06659317810454107,3.2588367770715685,3.258725840893488,-0.5533701125824585,-3.0805536843006234,-0.24210876728400793,-0.6727870074256668,3.2590936612002444,3.258939058654196,42138335
0,0,0,0,0,0,0,0,0,0,0,0,0.019863476736960022,-0.39051973706719123,-0.7688927494159637,-0.7530540529553953,3.2588584135602012,3.259010655762035,-0.8283277902993905,-3.0884014354230684,-0.013128234520940127,-0.16937043301706708,3.2590425204089306,3.2593985389946147,42139330
0,0,0,0,0,0,0,0,0,0,0,0,0.145161955971951,-0.7745843260984809,-1.1705540979569073,-0.9274020585300992,3.258638508157552,3.25840837459664,-0.082468459900434,-2.723768773528191,-0.6758735508768022,-0.2783121202364111,3.25918099393618,3.2589264701517187,42140324
0,0,0,0,0,0,0,0,0,0,0,0,1.376648733216373,-1.1372700974071142,-1.6428219965484139,-0.693292104398263,3.2589473198589465,3.259049994832276,-0.23025472524818483,-2.8457769329281963,-0.7221327569642969,0.16309309757865637,3.259407193590068,3.2592494439184003,42141318
0,0,0,0,0,0,0,0,0,0,0,0,0.5962083931217662,-1.4218418505003274,-0.5198886299000537,-0.38816686727605665,3.2588682483277616,3.2586888621674612,0.07748774021717789,-2.533477429566077,-0.5076573261806161,0.06368484064159878,3.259448106223119,3.2593631338313975,42142312
0,0,0,0,0,0,0,0,0,0,0,0,-0.4908107627404645,0.05688980303881204,-0.24460365111871374,-1.7806751466602262,3.2589949201339383,3.259077925572148,0.10120290532146754,-2.705043376093313,-0.34812480784950345,0.38698158108968506,3.2592317413367917,3.259126706019247,42143307
0,0,0,0,0,0,0,0,0,0,0,0,-0.6437555603689623,1.0586910913814416,-1.1747641652541359,-0.47049764043064596,3.2587223003771664,3.2587313483633213,0.6682134471194086,-2.440126996055483,-0.030490926562658137,0.7905630696491085,3.2592348884624105,3.2593214344169414,42144301
0,0,0,0,0,0,0,0,0,0,0,0,0.9347553175396106,-0.1517095508229197,-0.5917906155336636,-0.8080457458550626,3.259120018377306,3.2591719459500244,0.8565358706159437,-2.9961001749158114,-0.0601608467293795,0.5509735764233561,3.2591302465355687,3.2593765091152798,42145295
0,0,0,0,0,0,0,0,0,0,0,0,1.2395630883649693,-0.1380569264956625,-0.12712892617332053,-0.9726679530939999,3.258793504094303,3.2588056992060777,-0.14393339680831393,-0.85232816366293,-1.478499946415418,1.3491825877645716,3.259437878064856,3.259430010250808,42146289
0,0,0,0,0,0,0,0,0,0,0,0,0.7030100349199813,0.024399664926488984,-0.11276977214452888,-0.3195929669848641,3.2588328431645444,3.258703024232748,2.480099425327709,-2.4693991982220647,0.920470514353575,0.6404152799147701,3.258870608671976,3.25893001066804,42147346
0,0,0,0,0,0,0,0,0,0,0,0,0.5337521116438045,0.07492204605603767,0.059547550624317006,-1.0128811374761029,3.2589103411329194,3.258751017898442,1.2229730156627912,-2.0256182939551226,0.4741341440837555,0.6650970059748894,3.259271080407033,3.259112150563258,42148402
0,0,0,0,0,0,0,0,0,0,0,0,0.3969536420051624,0.18709386433289818,0.5625679805955864,-0.2571484872279748,3.258531899277198,3.258660538036887,0.920960679168782,-1.9410546351736349,0.7459946568005867,1.0435396484779893,3.2594457458789043,3.2594842981677408,42149459
0,0,0,0,0,0,0,0,0,0,0,0,0.31810122944131247,0.44832574705192413,0.1181120178833029,-0.03942050211674,3.258926076761016,3.258717579688737,1.11375634834246,-1.7697034799699163,0.5794538831059792,0.4492226778534267,3.2594087671528778,3.259235675243816,42150515
0,0,0,0,0,0,0,0,0,0,0,0,0.9419193556212611,-0.3141924994221329,0.2127508059443004,-0.20822995999216554,3.25870656474907,3.2587160061259275,0.5249311119235888,-2.106500209152723,-0.13310453094298014,-0.004225409534622374,3.2591975163456812,3.259219152834314,42151572
0,0,0,0,0,0,0,0,0,0,0,0,0.6818786599491429,-0.015645935016385917,-0.007582212398315954,-0.7417200734281627,3.258680994353413,3.2589032601002765,0.5446801119661464,-2.3368304654157717,0.21447975808140732,0.34298633849457955,3.259248657136995,3.2593525122824323,42152628
0,0,0,0,0,0,0,0,0,0,0,0,-0.80229948786491,2.8381840989809155,-2.1229085353503865,1.387853680593214,3.2591994832991933,3.2590433071903355,1.0394955920571796,-2.0012052537447516,0.3959528560582228,0.5324228444603496,3.259290356551451,3.2592093180667536,42153685
0,0,0,0,0,0,0,0,0,0,0,0,0.4287293826019028,0.28837977509257495,0.39371997043132423,-0.9367812796570396,3.2589673827847694,3.25864952309722,0.19416270186456464,-2.3518221916940436,-0.3182432434848837,0.5334566752262919,3.2592053841597295,3.2595440935545077,42154741
0,0,0,0,0,0,0,0,0,0,0,0,0.8715846385460662,-0.2259463102753532,0.10122414841939788,-0.8225591090392004,3.2589256833703137,3.258964629049853,-0.36467318113722574,-1.5582717130508081,-0.6795859789354776,0.6609974814650393,3.259216005708695,3.2591526698056064,42155798
0,0,0,0,0,0,0,0,0,0,0,0,0.035237185387275854,-0.6214211966301436,-0.0802497363388224,-0.45334069172629016,3.2585047553187314,3.2585877607569405,0.5713299717104401,-2.4639645056682236,0.09769661399085688,0.277365228815702,3.2590952347630537,3.2590913008560296,42156854
0,0,0,0,0,0,0,0,0,0,0,0,0.22229682472906406,-0.275139424221447,-0.6490494190513395,-0.9698166572829077,3.2588473986205333,3.2589292238866356,-0.38248551875180226,-1.558331901828277,-0.15160726924029222,-0.1599070262798102,3.2590102623713326,3.2590539287393003,42157911
0,0,0,0,0,0,0,0,0,0,0,0,0.7077429184607169,-0.9395834016303302,-1.0533476654705602,-0.46892447101169477,3.25890876757011,3.2589603017521265,-0.20849195819997288,-2.4919098009955647,-0.050777298304712566,-0.6161281247291713,3.2596038889412746,3.2592443298392686,42158967
0,0,0,0,0,0,0,0,0,0,0,0,0.46144572036811354,-0.4374968811865903,-0.5600431990674971,-0.6780147764700385,3.2590598295998365,3.258649129706517,-0.47490912376750993,-2.9614098026048903,-0.22154230136183514,-0.1540923183074377,3.2591699789965123,3.2591884683595262,42160024
0,0,0,0,0,0,0,0,0,0,0,0,0.45952558034963376,-0.5314149774807664,-0.06085439453773433,-0.6125793472027,3.2587793420290163,3.2588769029232143,-0.033389035867337685,-2.596365260644586,-0.042854016167404196,-0.15358130378500268,3.25931789390062,3.2593658875663145,42161080
0,0,0,0,0,0,0,0,0,0,0,0,0.6188138030545477,-0.3693061434395484,-0.4435240201382661,-0.23583025167348998,3.258900899756062,3.2588363836808663,-0.4237561373419925,-3.1044403677511654,-0.2835898498999893,0.21589911173571485,3.2592604588580674,3.2593509387196224,42162137
0,0,0,0,0,0,0,0,0,0,0,0,-0.17992943286054525,0.19286529932800522,-0.8814355351252001,1.501878762469144,3.2589929531804263,3.2588363836808663,0.24524959865207657,-2.7567301937020057,0.04566203900123107,0.29388409780074326,3.2592364620252203,3.2589693497382815,42163193
0,0,0,0,0,0,0,0,0,0,0,0,1.7243907719124283,-2.3220912959684488,2.5475891408430504,-1.0781470153507011,3.2585287521515784,3.2585440943889727,0.3513824762561889,-2.639110700978124,-0.452918976893303,-0.12394442843728404,3.2591613244010595,3.2591333936611884,42164250
0,0,0,0,0,0,0,0,0,0,0,0,-0.13561908431280664,0.08943973653790194,0.3676228246239215,-0.2568731137362854,3.2591904353130383,3.2588702152812736,0.22858832223276163,-3.0329955021137596,-0.895602714491214,-0.16603684020481588,3.259018916966786,3.2591652583080837,42165307
0,0,0,0,0,0,0,0,0,0,0,0,0.1205360913915743,0.14461002881646498,0.476367029710654,-0.2744537442271405,3.2589166353841583,3.2586750934928768,1.1133023754718752,-1.7123687520466748,-0.8092880736932841,2.7042530541721645,3.259440631799773,3.2593194674634294,42166363
0,0,0,0,0,0,0,0,0,0,0,0,0.6424585512231054,-0.061538894359933656,0.03366322918691983,-0.5829680422506383,3.2588017652990535,3.2586636851625066,1.7350744766085715,-2.6877707705224476,3.236754970163699,0.8324882903681147,3.2589528273287804,3.258963055487043,42167420
0,0,0,0,0,0,0,0,0,0,0,0,0.7220898773777338,0.07186264656336863,-0.15805336929003824,-0.5319283523474159,3.2591227721122227,3.2590968083258636,1.396639668540915,-1.3179036996249793,0.4391880678162655,1.2617987110374822,3.259644014792921,3.2592136453644804,42168476
0,0,0,0,0,0,0,0,0,0,0,0,0.5831395605968904,0.35408585716317376,-0.24495652257877856,0.10784727428522994,3.2588296960389247,3.2586211989666456,1.4634653405505824,-2.2398214983727334,0.16672212680842002,0.8543556993431686,3.259156210321928,3.2593580197522662,42169533
0,0,0,0,0,0,0,0,0,0,0,0,0.6768015595437955,0.17734013525726022,0.2111044658547003,-0.17557263083131677,3.259092087637435,3.2590853999954934,0.783167717834439,-2.708576417991688,-0.21235308794416044,-0.01026395681666813,3.2592234801320408,3.2590031813386893,42170589
0,0,0,0,0,0,0,0,0,0,0,0,1.4567548819488145,-0.43890915380825446,0.2605206323290625,-0.2758648366766973,3.259016163231869,3.2588847707372626,0.36952486867009027,-3.081271228941825,0.379390714095916,0.3942911737312285,3.2593367766543357,3.259665257890851,42171646
0,0,0,0,0,0,0,0,0,0,0,0,1.070490452109629,-0.012780083749304264,0.3101925027599934,0.7048845416169811,3.258843071322807,3.2587372492238575,0.5615923716536011,-1.7142589943717712,0.8186775229784874,0.6868306621111229,3.259275014314057,3.259077138790743,42172703
0,0,0,0,0,0,0,0,0,0,0,0,0.7245111971510882,0.7045544868176563,-1.8221526887598858,3.0931292048846726,3.2588698218905714,3.2587797354197185,0.599536871854886,-1.9898213135983125,0.2518605294061338,0.29256663233836083,3.2593013714911185,3.2593143533842985,42173759
0,0,0,0,0,0,0,0,0,0,0,0,-1.393976413485576,0.19044515972675796,0.12996015905858982,-0.6370203181529424,3.2589547942822925,3.258797438001327,0.2503479421553543,-1.898357975287196,0.356540221755531,-0.34076210746313423,3.2590047549014987,3.259191222094443,42174816
0,0,0,0,0,0,0,0,0,0,0,0,1.8965113993300675,0.4859881861195786,0.07227059272177132,-0.5612151099699867,3.258804125643268,3.258795077657113,0.6414235402850557,-2.10125591769885,0.1801103925836554,0.7658262688906513,3.259405620027258,3.259208531285349,42175872
0,0,0,0,0,0,0,0,0,0,0,0,1.5002052784210775,-0.7780524585309575,-1.0196234607247663,-1.027270189198278,3.2587057779676645,3.2589138816492413,0.611598230790881,-2.919292213832404,1.2976598140787856,-0.1786159013051869,3.2592329215088984,3.259117264642389,42176929
0,0,0,0,0,0,0,0,0,0,0,0,0.5377017542960351,-0.5128607050014382,-0.4253517300309813,-0.46616168810864544,3.2591239522843303,3.2588513325275574,1.2310379184529683,-1.6362983985302924,0.12628313616313172,0.3408376384779976,3.259378082678089,3.2591782402012632,42177985
0,0,0,0,0,0,0,0,0,0,0,0,-0.04958689803920961,-0.21168038984303353,-0.9404087353239936,-0.7820378997371077,3.2586998771071283,3.2586267064364796,-0.14027368310376204,-1.8868996842980006,0.026030662778694962,-0.3345465343650024,3.2595676969966525,3.259473676618776,42179042
0,0,0,0,0,0,0,0,0,0,0,0,0.966821380474732,-0.7039525990429638,-0.5260758788676118,-0.6174247404843259,3.259175093075644,3.258985085366378,-0.30695371710702385,-2.919981434343032,-0.824882474527654,-0.10664310534514253,3.2591322134890808,3.2589748572081154,42180098
0,0,0,0,0,0,0,0,0,0,0,0,0.16378664538701118,-0.5643103080165752,-0.5282013688327514,-0.7497397362875624,3.2590472410973597,3.2586031029943348,-0.3029879454359943,-2.8727584210346246,-0.14768949123495712,-0.010943735950438493,3.259234101681006,3.2592183660529095,42181093
0,0,0,0,0,0,0,0,0,0,0,0,-0.06952472561892577,-0.39314286627088385,-0.4816278435740284,0.011287166033645395,3.258452040964608,3.258666045506721,-0.008399678277931007,-2.5574534127060664,-0.34611772848579025,-0.2923439732007948,3.259244723229971,3.2590051482922013,42182087
0,0,0,0,0,0,0,0,0,0,0,0,0.620921983828781,-1.2121602788162562,-0.06855659110028636,0.3814123489156185,3.258969743128984,3.2589418123891125,-0.18380472467001968,-2.5855584246585877,-0.5480176386854217,-0.04135677115401877,3.259462268288406,3.259081072697767,42183081
0,0,0,0,0,0,0,0,0,0,0,0,-1.011433853081924,0.6662645895796525,0.2463566000886679,-1.5372961207981253,3.2586924026837827,3.258792717312898,-0.24592032979969142,-2.5938817851402503,-0.7958384389684723,0.162265796931481,3.2591247390657347,3.2594591211627866,42184076
0,0,0,0,0,0,0,0,0,0,0,0,0.8670110782398078,-0.16573904344308893,-0.04734811155177492,0.3564025350096863,3.2587246607213807,3.2587191532515467,0.44497248470455225,-2.38314081229458,-0.46585799048638227,0.5625868633493022,3.259291143332856,3.2588654945928446,42185070
0,0,0,0,0,0,0,0,0,0,0,0,0.6319341697614395,-0.03414946009510279,-0.358664138157861,-0.05521435203723336,3.2588462184484266,3.258582253287107,1.098317730226246,-3.0921890011059046,0.7198687934719077,0.9934299341952723,3.2592722605791398,3.2594410251904753,42186064
0,0,0,0,0,0,0,0,0,0,0,0,0.9299260532767836,-0.046780842158894796,0.3207168842216592,-0.571857115251674,3.2587809155918257,3.258607036901359,-0.027475193437956978,-0.9191715382542059,0.12038109545482342,0.29277552280134234,3.25933913699855,3.259243543057864,42187059
0,0,0,0,0,0,0,0,0,0,0,0,0.7434946588867496,0.07101882350669188,0.061060531265798954,-1.2837723355021877,3.258822221615579,3.258715612735225,2.310710502947629,-1.1285317097344052,1.3151334422985843,1.9120345964473004,3.2593914579619714,3.2592014502527054,42188053
0,0,0,0,0,0,0,0,0,0,0,0,0.9686415992547988,0.28375389382289573,0.1590647767859431,-0.5222772982451079,3.258990592836212,3.25852088433753,1.715635075048813,-1.1684053979403255,1.2489486037431483,1.2918675293764508,3.2589795778965445,3.2589559744543997,42189047
0,0,0,0,0,0,0,0,0,0,0,0,0.6750592321228065,0.17527916136731642,-0.09928905955422633,-0.3235406426835826,3.2589441727333273,3.258504361928029,1.143842475872335,-1.9407529045048837,0.5770490857421262,0.3825657704550946,3.259595627736524,3.2592604588580674,42190042
0,0,0,0,0,0,0,0,0,0,0,0,1.2733002750039428,-0.4901962864632948,0.5120176687261664,-1.1303287184630297,3.2587836693267427,3.258906013835193,0.46157789964412443,-2.146282630715684,-0.1632791713808979,0.26831606248808654,3.259189648531633,3.2593084525237623,42191036
0,0,0,0,0,0,0,0,0,0,0,0,0.8080642352180761,0.2963333483139692,-0.3071700819933512,-0.46148230570343796,3.2590149830597617,3.258856053215987,0.8573619910910119,-2.1748412221480873,-0.04299839055518991,-0.10367418571402856,3.2591802071547753,3.259142048256641,42192030
0,0,0,0,0,0,0,0,0,0,0,0,0.4229485062299378,-0.06053299433386258,1.0741411178280256,-1.9474224504736006,3.258800978517649,3.2589146684306463,0.30953672045907027,-2.3323399105477223,-0.021780863020522952,0.013821782329294959,3.2594787906979072,3.259088547121113,42193025
0,0,0,0,0,0,0,0,0,0,0,0,0.9330841938357584,0.3200166487713633,-1.123355868262752,0.17440858774287551,3.259048027878764,3.2585417340447584,0.27114965571757027,-2.5854683381877344,-0.6214880730495539,0.32537108962191214,3.2591019224049953,3.2587962578292196,42194019
0,0,0,0,0,0,0,0,0,0,0,0,-0.08057428366831347,-0.047739141909973845,-0.15407540250723392,-0.5907076109299196,3.259111363781853,3.258959908361424,-0.12533899847733954,-2.8442210727001513,-0.07492834030727628,-0.02121910109747661,3.259282488737403,3.259357626361564,42195013
0,0,0,0,0,0,0,0,0,0,0,0,0.6931642524199787,-0.5447446280413423,-0.10709904516923965,-0.7804545021598938,3.2586192320131335,3.2586672256788285,-0.3938163511534155,-2.834487013159634,1.3335106889618265,-2.2988289235626365,3.2593584131429685,3.259048421269467,42196007
0,0,0,0,0,0,0,0,0,0,0,0,0.6934270374091908,-0.4218533065144189,-0.4605334473292168,-0.8935669176062246,3.258858020169499,3.2589949201339383,-0.38257835895757186,-2.2619328095832834,0.43540522282185823,0.25781410429645824,3.259330089012395,3.2591605376196546,42197063
0,0,0,0,0,0,0,0,0,0,0,0,-0.18021700146400943,-0.474131783739541,-0.5554771131845848,0.01573562809653617,3.2587494443356326,3.258289963995214,-1.0217155124802009,-2.6928101054203637,-0.6163578648993807,-0.21802066779383036,3.2594799708700144,3.259292716895666,42198119
0,0,0,0,0,0,0,0,0,0,0,0,0.5239602236700324,-0.4512301506078423,-1.1096005689621649,0.6498995363592549,3.258496887504683,3.2585936616174767,-0.7517896952378387,-2.809337545554345,-0.0750019043686276,-0.38237772969934103,3.259315140165703,3.2591027091863998,42199175
0,0,0,0,0,0,0,0,0,0,0,0,0.28534201208853865,-0.6159200210475947,-0.6634927586904477,0.009990943669193227,3.258852119308963,3.258587367366238,-0.08918835987905978,-2.734980408546973,-0.22388022230627802,0.1277083906779755,3.259377689287387,3.259191222094443,42200231
0,0,0,0,0,0,0,0,0,0,0,0,0.624408605624271,-0.6448586278985294,-0.4348572295733964,-0.9359378499910652,3.2591322134890808,3.2587179730794396,0.007851685029469136,-2.5391088174711247,-0.608106888306962,-0.224179986021517,3.2592297743832797,3.259250230699805,42201287
0,0,0,0,0,0,0,0,0,0,0,0,0.7756122560038871,0.09751644104915154,-0.2396815466501172,-2.1429986051319365,3.2588422845414025,3.2588418911506998,0.34117123379364417,-2.1929493895708783,-0.5865604861450774,0.07757507295311367,3.2596200179600734,3.259140081303129,42202342
0,0,0,0,0,0,0,0,0,0,0,0,1.1403212356950325,0.9882450447374636,-1.0655707079852472,0.4268029483321843,3.258782489154635,3.258845825057724,0.34775934788696145,-2.2804670191367884,-0.2697963917012681,0.011866237147597927,3.2592297743832797,3.259370608254743,42203398
0,0,0,0,0,0,0,0,0,0,0,0,-0.19973665472706015,0.12076583156178373,0.7124537721221175,0.1489802061295755,3.2590413402368235,3.25881907448996,0.6949301832831124,-3.103382933543078,-0.023115637673811636,-0.32471884783731075,3.2592423628857565,3.259260065467365,42204454
0,0,0,0,0,0,0,0,0,0,0,0,0.146147793072199,0.18043454652244406,0.6778424713423814,0.3012287022148015,3.258504361928029,3.258621985748051,0.2668597301077521,-2.451813060261376,-0.7798840856413943,-0.1747803419566562,3.2593588065336707,3.2590712379302067,42205510
0,0,0,0,0,0,0,0,0,0,0,0,0.7484340725462523,-0.3272310408629227,-0.07238310246266157,-0.5551285690222464,3.259180600545478,3.2586235593108603,0.7553321785130713,-1.0359845800381398,-2.690685008845926,1.9234901337015786,3.258955581063697,3.2589756439895203,42206566
0,0,0,0,0,0,0,0,0,0,0,0,0.5864881022558335,0.07974108216060187,0.2156335730115858,-0.05851844054680353,3.258600349259418,3.2587966512199222,1.324777808758951,-3.2373938366644186,0.5496033966068502,0.3045087938915246,3.2592612456394727,3.259446139269607,42207621
0,0,0,0,0,0,0,0,0,0,0,0,0.06575879642472224,-0.11147787707780327,-0.33784432862333397,-0.4917257895142781,3.258782095763933,3.259030718687858,0.525195863866313,-2.021456220323589,0.5768252464324529,0.4006534815613605,3.259357626361564,3.2592962574119873,42208677
0,0,0,0,0,0,0,0,0,0,0,0,0.8741475789722895,-0.2677405318904557,0.02378204152369994,-0.4377647802549338,3.2591758798570485,3.2590059350736063,0.7123994842051845,-2.012968422528317,0.54484533606116,0.35413306404746336,3.2593489717661104,3.25920381059692,42209733
0,0,0,0,0,0,0,0,0,0,0,0,0.7280934128872648,0.16482165632506088,-0.05419822385289953,-0.429586974333164,3.2590134094969523,3.2587455104286085,0.9738595335316101,-1.5092961441631487,0.614185561440654,0.9790109847797137,3.2595810722805347,3.2594898056375747,42210789
0,0,0,0,0,0,0,0,0,0,0,0,0.3001929044953471,0.16702031696084937,0.2772121998324632,-0.6008936763875098,3.258990592836212,3.258927650323826,1.7058990485547838,-1.235661439378433,0.8635641889052615,0.8760342807810642,3.259141654865939,3.2587852428895525,42211845
0,0,0,0,0,0,0,0,0,0,0,0,0.612649764138432,1.369140871660813,-0.725823155143637,0.2286485110102309,3.258863921030035,3.2582785556648437,1.514077021369579,-1.854130238786964,0.6263122232332495,0.8541582172105571,3.2593713950361485,3.2593654941756123,42212900
0,0,0,0,0,0,0,0,0,0,0,0,1.9733823029258613,-0.5871922716131535,0.14566706963384982,-0.6199282789144848,3.2589917730083195,3.2587986181734343,0.9447183304689324,-2.666079207191373,0.47425688198290844,0.6096800577259132,3.2592659663279013,3.2592769812675693,42213958
0,0,0,0,0,0,0,0,0,0,0,0,-0.06551017350079696,0.03762821407654453,-0.38272273334535756,-1.1127260580928395,3.2588595937323084,3.258621985748051,1.0877343401592183,-2.2005756617278647,0.8010402442264848,0.8656629283026371,3.259366674347719,3.2589835118035686,42215015
0,0,0,0,0,0,0,0,0,0,0,0,0.2508668244918375,-0.3585834930638663,-0.36579277107629427,-0.5471757825822571,3.2588902782070965,3.25864794953441,1.0133394376444145,-0.9407608200026536,0.7143015282513533,0.03624701932037107,3.2590059350736063,3.259278161439676,42216072
0,0,0,0,0,0,0,0,0,0,0,0,-0.6429306200660014,-0.5012407304335511,-0.13829020718219365,-0.2108220113303675,3.2587179730794396,3.2586530636135413,1.6281194124364151,-2.3245130091325055,-1.212504495680868,1.3154670376142308,3.2594540070836553,3.25929507723988,42217129
0,0,0,0,0,0,0,0,0,0,0,0,-0.7933337203662062,-0.25615674926719056,-0.46374902293074405,-0.1306969798442101,3.258937485091386,3.258647556143708,-0.761475367721959,-2.2809076167234914,0.04305346525352779,0.18589834998826385,3.259664077718744,3.259375722333875,42218186
0,0,0,0,0,0,0,0,0,0,0,0,-0.26495375215455913,-0.6051631456808025,-0.10745781748984068,-0.005811954237455634,3.2590704511488022,3.258360380930946,-0.1301214492465793,-2.1209341074149735,0.3586476157483596,0.055284375582262936,3.259048027878764,3.2592482637462927,42219244
0,0,0,0,0,0,0,0,0,0,0,0,0.942042093520414,-0.35474990066884765,0.16473275002631543,0.26560087986002917,3.2586011360408227,3.2588662813742495,-0.8616546704357468,-3.245237653879839,-0.6639821367242499,-0.3204914713491763,3.2596066426761916,3.2593552660173493,42220301
0,0,0,0,0,0,0,0,0,0,0,0,1.101728034225468,-0.3015414478232202,-0.1635372356816811,-0.8619088008295059,3.2590680908045875,3.25912552584714,0.1951922053327805,-2.5537319366612357,-0.03395040439968161,0.29143445389681505,3.2591282795820566,3.259289569770046,42221358
0,0,0,0,0,0,0,0,0,0,0,0,0.43137296812212084,-0.5413059999115467,-0.9793540214722182,-0.7729816523768487,3.2587207268143565,3.2584197829270103,-0.3157896656739313,-2.8377749726504056,-0.03907825220564034,0.3872770175071975,3.2590102623713326,3.258942205779815,42222415
0,0,0,0,0,0,0,0,0,0,0,0,1.2498101293814337,-1.1413267423304012,1.5270270499023257,-1.8256735355464857,3.2585661242683077,3.2586825679162224,0.17860960705394827,-2.817911102522743,-0.5519114198579097,-0.5202131772295447,3.2593859504921374,3.2593658875663145,42223472
0,0,0,0,0,0,0,0,0,0,0,0,-1.2305670297821796,2.47151918071737,-0.7871075257191091,0.26515044750576583,3.25871639951663,3.258752984851954,-0.24024212840105633,-2.725980809447862,-0.7783164236922768,-0.16203054929143776,3.259179026982668,3.25904409397174,42224530
0,0,0,0,0,0,0,0,0,0,0,0,1.4351774019214394,-0.20626300648009852,-0.35377389833615996,-0.37660944182985323,3.258969743128984,3.2585362265749245,0.518240716247644,-2.6479655322987474,-0.6293924724331464,0.8202919984211919,3.2597191524170817,3.259319074072727,42225587
0,0,0,0,0,0,0,0,0,0,0,0,1.0460215504195154,-0.15053960687394222,-0.6322488823233702,0.10245978861567838,3.2588426779321047,3.2590362261576917,1.6058117992653607,-2.2882840857844453,1.2927274814519263,1.2697479569611498,3.2590928744188394,3.259197909736384,42226644
0,0,0,0,0,0,0,0,0,0,0,0,1.425875285372172,0.21917881002173542,-0.05452788526152197,-0.04583788464520987,3.2590027879479866,3.2586428354552783,-0.2008530975405094,0.5048544174259206,0.1781170818945267,-0.06983786461804684,3.2594193887018426,3.259094054590947,42227701
0,0,0,0,0,0,0,0,0,0,0,0,1.358463067825206,0.46161173124453203,0.5387576149413126,-0.14896132337585966,3.2589673827847694,3.258605069947847,0.8629115537299578,-2.000909817327239,0.39151580232570193,0.27317443766289207,3.2591687988244056,3.258995313524641,42228758
0,0,0,0,0,0,0,0,0,0,0,0,0.6185447238140969,0.29331486145435115,0.4361381097004544,-0.06280482564029999,3.2587148259538203,3.2587832759360404,1.0686773143622057,-1.3928068629273012,0.47556451267773064,1.048847275834951,3.2592935036770703,3.259160144228952,42229815
0,0,0,0,0,0,0,0,0,0,0,0,0.7249549418634107,0.458606619668796,0.5104118478789148,0.013965369935675851,3.2589233230260994,3.258702237451343,1.205913627852634,-2.0634837226252225,0.41971011396767066,0.5928421488812147,3.2594355177206418,3.259018130185381,42230872
0,0,0,0,0,0,0,0,0,0,0,0,1.2651905256736904,0.06682921252598911,0.5918968310233153,-0.4168525239053397,3.2585952351802865,3.258797044610625,0.7553833193043851,-2.3595987390993525,-0.08035044435864022,0.5570042558913536,3.2587171862980346,3.2588824103930483,42231928
0,0,0,0,0,0,0,0,0,0,0,0,0.8902773845526438,-0.027505484522042812,0.37561927743187873,0.7330981294033682,3.2584736774532406,3.258898146021145,0.6700702512347998,-1.7872101530087177,0.9344114940657012,0.9284307752169102,3.2591058563120194,3.2593277286681803,42232984
0,0,0,0,0,0,0,0,0,0,0,0,-0.9410216380383536,-0.29665907581556744,0.9922914615024878,-2.2965228672650895,3.2589787911151396,3.258627886608587,0.6614793850754958,-2.254977268573912,-0.15579255292326843,0.5082552800482845,3.259265572937199,3.2592443298392686,42234041
0,0,0,0,0,0,0,0,0,0,0,0,1.169637104229582,-1.4373040720586863,0.007612503482401786,-1.0238803415155817,3.2587518046798474,3.258936304919279,-0.16606005025625828,-2.7413710405076785,-0.24260916025747778,-0.357208199168229,3.259161717791762,3.2589213560725874,42235097
0,0,0,0,0,0,0,0,0,0,0,0,0.6592921327700773,-0.013809587217520144,-0.36075422295978343,-0.8787526105347407,3.258937485091386,3.2588481854019387,-0.4984665392001318,-2.8814236380366847,-0.38085373411819146,0.6483377752706736,3.2595130156890173,3.2595940541737143,42236153
0,0,0,0,0,0,0,0,0,0,0,0,0.8196216606642795,-0.5084138165013572,-0.6794337367336436,-0.5200345778506491,3.2588867376907746,3.2588017652990535,0.7469698723518695,-3.204357278866443,2.262428088477622,-1.4368131204620742,3.258971710082496,3.259001214385177,42237210
0,0,0,0,0,0,0,0,0,0,0,0,0.48915301432049446,-0.25790143703239404,-0.3616716100778115,-0.5618850543361966,3.2586416552831716,3.2584056208617236,0.3217676307878054,-1.750761717648711,0.0034724597302031195,-0.1833621601298046,3.2591451953822608,3.2593438576869795,42238266
0,0,0,0,0,0,0,0,0,0,0,0,0.6811457730705467,-0.6289062415249635,-1.5144007819176653,-0.5991761325807728,3.2587636064009198,3.258645195799493,0.19374334737579194,-1.8740794746970504,-0.07502747476428447,-0.23106550348585886,3.259099168670078,3.2592388223694346,42239322
0,0,0,0,0,0,0,0,0,0,0,0,0.32598123860135536,-0.8210591102908981,-1.012254072696456,-0.5007891179071805,3.2588938187234184,3.2583800504660667,0.13426385334299246,-2.5610682798705433,0.02912900795090293,0.29950801128244536,3.259359593315076,3.2588513325275574,42240379
0,0,0,0,0,0,0,0,0,0,0,0,0.2782090518723788,-0.5123127117529764,-0.3598041844134551,-0.17428034237388876,3.258811600066614,3.2585134099141846,0.10991336225430516,-2.858663625557855,-0.1526544752901167,-0.12647943812363602,3.2592400025415422,3.2591192315959012,42241435
0,0,0,0,0,0,0,0,0,0,0,0,0.2558400697517478,0.09714586700747811,-0.7123770609351469,-0.4768729301539576,3.2589123080864315,3.259087760339708,-0.06006367922588339,-3.1992227434185434,-0.9840892653571683,0.21780626986101506,3.259450073176631,3.259527964535709,42242491
0,0,0,0,0,0,0,0,0,0,0,0,0.29889746891229974,-0.7544037764553757,0.33606541586702054,-1.5665222962525243,3.2587797354197185,3.2585987756966084,-0.013116432799867725,-2.9580443451457437,-0.20736135332123676,0.3454938108317626,3.2592612456394727,3.2592156123179925,42243548
0,0,0,0,0,0,0,0,0,0,0,0,0.02220021750929564,0.6134172693988406,-2.099644982772467,2.648299914395799,3.2587706874335627,3.258701450669938,0.6550533479515729,-2.310516954722041,-0.08513014139296309,0.39154333967487087,3.2588851641279653,3.2591211985494133,42244604
0,0,0,0,0,0,0,0,0,0,0,0,0.5310172594806265,-0.3711920584669183,0.36135886446939286,-0.7115647091346632,3.2587348888796432,3.258598382305906,0.8709123338356416,-2.590480135736481,0.07427531174127004,0.1539404694963061,3.259415848185521,3.259151096242797,42245660
0,0,0,0,0,0,0,0,0,0,0,0,0.267568620153501,0.011848534565989322,0.3493340908687223,-0.6278621826007583,3.2591526698056064,3.258740002958775,0.8210355068487533,-2.672070154198426,-0.02805859184963606,1.0412564088411818,3.2594245027809743,3.2591377209589147,42246716
0,0,0,0,0,0,0,0,0,0,0,0,0.5231254485995112,0.2121264948995703,0.2706177914879073,-0.606005788565372,3.258952433938078,3.2583965728755677,-0.01896418559124298,-1.378544089620601,-1.6161327977338786,1.8655716139759557,3.259062583334754,3.258966596003365,42247649
0,0,0,0,0,0,0,0,0,0,0,0,0.2739297478115258,-0.09229614642812567,0.030106977237102654,-0.25809183813236214,3.2586483429251123,3.2586255262643724,0.9739118544950311,-2.5089554201311373,0.6296296870267019,0.5046482806978559,3.2593013714911185,3.259273047360545,42248581
0,0,0,0,0,0,0,0,0,0,0,0,0.6205624247267753,-0.25995100259196785,0.462849731785027,-0.007722652879077539,3.2587462972100134,3.2588308762110323,0.6485053597099018,-2.8257262022168876,-0.12831067184337042,0.20617764069767483,3.25886313424863,3.259285635863022,42249513
0,0,0,0,0,0,0,0,0,0,0,0,0.27376649067002423,0.1157052535659377,-0.23439162187476417,-0.5497096120965018,3.2584512541832034,3.2581550309842857,0.2886693106495512,-2.85859438879423,-0.1983668683012567,0.22083695183240792,3.2594154547948184,3.259153063196309,42250446
0,0,0,0,0,0,0,0,0,0,0,0,0.7709969962831731,0.11110494269191536,-0.27290732537595336,0.23412136246220616,3.258909554351515,3.259178633591966,0.24572009393216296,-2.277265212209846,-0.08967144366162344,0.018494477092561374,3.2593658875663145,3.259173126122132,42251378
0,0,0,0,0,0,0,0,0,0,0,0,1.0346667211850549,-0.026454344565194195,0.47005153537410915,-0.3203333282868061,3.2588682483277616,3.2584496806203935,0.3487274824056008,-2.171146103280318,0.48329424658945164,-0.17094950329655448,3.2592459034020784,3.2589441727333273,42252310
0,0,0,0,0,0,0,0,0,0,0,0,0.7850921851506454,1.0423464944775693,-0.853149563449569,-0.17317334093729744,3.25893158423085,3.25875062450774,0.6390871929034224,-1.7735598890256747,0.18797899341332833,0.6712040032391552,3.2593772958966847,3.2594241093902716,42253243
0,0,0,0,0,0,0,0,0,0,0,0,2.1821043946867458,0.39673137625829885,0.46976475355204983,-0.3964386935757033,3.258961088533531,3.258790750359386,0.7934749476283727,-1.7811932422153045,0.5667347749155491,0.32447455221111204,3.2591861080153115,3.2590916942467323,42254175
0,0,0,0,0,0,0,0,0,0,0,0,0.7705414498497783,0.02906291831289748,-0.10386458681399664,0.05360853118998184,3.258800978517649,3.2588918517699064,0.7606484604654861,-2.354089695702755,0.7981323001542449,0.08968560572691031,3.2594783973072046,3.259172339340727,42255107
0,0,0,0,0,0,0,0,0,0,0,0,0.4923316111959947,0.056820566275187286,-0.08629929856053573,-0.21369809075571186,3.25870341762345,3.2585979889152035,-0.30210832382539793,-1.6438935928217877,-0.2932920447936111,-0.8304914391626643,3.259185714624609,3.2590594362091343,42256040
0,0,0,0,0,0,0,0,0,0,0,0,0.6322528162303943,-0.15359821958520645,-0.14642080621967388,-0.1368330880204544,3.258528358760876,3.258854086262475,0.15650144296901736,-2.6031056169397373,1.1992330669442495,0.7384395883607374,3.259267539890711,3.25944338553469,42256972
0,0,0,0,0,0,0,0,0,0,0,0,0.533647863107665,-0.1423594406079579,-0.09244602828574516,-0.47809165455003433,3.258976037380223,3.2591459821636652,-0.28354972404834317,-2.215104367149397,0.4784032199863457,0.07437129907265891,3.258979184505842,3.259214038755183,42257904
0,0,0,0,0,0,0,0,0,0,0,0,1.0776426884702073,-0.40991940616600586,0.12784214351679604,-0.4355802816844322,3.2588108132852094,3.258677060446389,-0.36738206951404445,-2.4497343837898233,-0.2439002685427986,-0.4706687653861958,3.259179026982668,3.259252591044019,42258837
0,0,0,0,0,0,0,0,0,0,0,0,-0.2759010286213193,-0.3018711092318427,-0.2691413961817498,-1.014379956052298,3.259191615485145,3.2586593578647802,-0.18678269228728916,-2.9575195619487236,-0.5527595702123129,-0.008193934940568798,3.2593765091152798,3.2591920088758477,42259769
0,0,0,0,0,0,0,0,0,0,0,0,-0.09777175161501783,-0.576102981102822,-0.6114900483477174,-0.22393962430234246,3.259007508636416,3.2588462184484266,0.21919415225912953,-2.5761052460795932,-0.1092485319672265,0.5525652352053207,3.2590759586186357,3.2589193891190753,42260701
0,0,0,0,0,0,0,0,0,0,0,0,-0.26447302871621,-0.34026800874090296,-0.050254875451907564,-0.3625351026696089,3.2588592003416057,3.2583973596569726,1.2033070210584427,-2.6012850047689677,0.42935133330241837,1.2094765674443921,3.2594174217483305,3.259291143332856,42261633
0,0,0,0,0,0,0,0,0,0,0,0,1.6647885399804758,-1.0452308351076645,-0.11160454888398037,0.004527140203373457,3.259090120683923,3.258757312149681,1.627724448171192,-2.0787673448046857,0.7369687005244137,1.3325417676617821,3.2590743850558264,3.258894605504823,42262690
0,0,0,0,0,0,0,0,0,0,0,0,0.6759270520123305,-0.0319806971526977,-0.24601356339616337,-0.7337200801038837,3.2586853216511393,3.2585515688123188,0.905522061052568,-2.6539655272919567,0.2687944255822212,0.5659889061437733,3.2589693497382815,3.2588863443000724,42263746
0,0,0,0,0,0,0,0,0,0,0,0,0.8241944341891329,-0.18272565397329973,0.07813644148545759,-0.6680804810619927,3.258627099827182,3.258374936386935,0.6173322936692588,-2.5227720883813007,0.24766934486262138,-0.07210890914307941,3.259237642197328,3.259507114828481,42264803
0,0,0,0,0,0,0,0,0,0,0,0,0.3345453541928952,-0.2962731595364999,-0.023018863561017934,-0.48536190812133645,3.2588615606858204,3.258872575625488,2.6123105659855086,-2.948728853312594,-0.10135947482102808,0.8420760085673341,3.259271080407033,3.259117264642389,42265859
0,0,0,0,0,0,0,0,0,0,0,0,0.5250758797020769,-0.3307648695427024,-0.16364581151554722,-0.31774009677649695,3.259075171837231,3.258609397245573,0.0954019660236795,-2.010941280238781,0.2565835781793091,0.30772791000937344,3.2591534565870113,3.259294683849178,42266915
0,0,0,0,0,0,0,0,0,0,0,0,0.631984130380646,-0.044946854704243505,0.04921593060683377,-0.07617932274095092,3.2586530636135413,3.2588627408579276,0.8602840972285386,-2.317127492085396,0.21200926447025112,0.3754532665554603,3.25911411751677,3.2592954706305823,42267972
0,0,0,0,0,0,0,0,0,0,0,0,1.302841556410975,0.13948532813612557,-0.3399076628574923,0.23117840661745148,3.2590157698411666,3.2586046765571446,0.5713051880961881,-1.8419154574770278,0.36744304507291853,0.4583934019080879,3.259503574312159,3.259069664367397,42269028
0,0,0,0,0,0,0,0,0,0,0,0,1.1403570342489522,-0.15953212494041022,0.10162068624743059,0.06515454830581525,3.259075565227933,3.258883983955858,0.7343876641258793,-2.0356552643364982,0.20555923051348093,0.20947779530022087,3.259294290458475,3.2591298531448665,42270084
0,0,0,0,0,0,0,0,0,0,0,0,0.9208556438512377,0.03287998829841474,0.3033557657427508,-0.13916628827646832,3.2587817023732306,3.25881750092715,0.743894737231104,-2.7023156049627786,0.43316840328793565,0.3387023137452976,3.2591983031270866,3.2590008209944745,42271141
0,0,0,0,0,0,0,0,0,0,0,0,1.1708235705880605,-0.5931423059871562,0.9595381450102501,0.042185251973301405,3.2589587281893166,3.2587502311170375,0.531843773346397,-2.4503012597920013,0.32008155823726153,0.37442297630583954,3.2592769812675693,3.2594095539342822,42272197
0,0,0,0,0,0,0,0,0,0,0,0,0.31771098586451835,1.0261273892077671,-0.8118156089562903,1.0022674563249891,3.25841152172226,3.2587223003771664,0.699233877567515,-2.0772370549722976,0.7111736787764643,0.4555326647201377,3.258865101202142,3.258985085366378,42273254
0,0,0,0,0,0,0,0,0,0,0,0,0.5374606057954556,0.17463124688044152,-0.2419820954778308,-0.4813288666401942,3.2591129373446623,3.2588045190339705,1.057244200377965,-2.0790793036316995,1.0311529554310985,0.5351018351437848,3.2596188377879662,3.259235281853113,42274310
0,0,0,0,0,0,0,0,0,0,0,0,0.8514359535498564,-0.3461956198448682,-0.6072921761622638,-0.5891438828878263,3.258961088533531,3.2589182089469677,0.8724701610171987,-0.701939225428012,-1.2640811638928846,1.7446661287148153,3.2596943688028297,3.259585792968964,42275366
0,0,0,0,0,0,0,0,0,0,0,0,1.151833027819756,-0.3550166195650839,0.014734055368191643,-1.6765997024297359,3.258789570187279,3.259097201716566,1.3981270787867401,-3.1854257447035006,2.994436525635305,-3.0014998556971375,3.2594028662923415,3.2588296960389247,42276423
0,0,0,0,0,0,0,0,0,0,0,0,0.05053654319483556,-0.18882478342351713,-0.42257675201615713,-1.5394239711074793,3.258972103473199,3.2586723397579593,-0.14593850921851506,-2.330901280748997,-0.7392145680444918,-0.26009773732396807,3.259383196757221,3.2595905136573924,42277479
0,0,0,0,0,0,0,0,0,0,0,0,-0.3410225321081319,0.4233658937651984,-0.4277431521109524,-0.10865726574149916,3.259031505469263,3.258751017898442,-0.495185660742004,-1.9175668498953402,-0.15211867715342964,0.10272060665137846,3.2593497585475157,3.259191615485145,42278535
0,0,0,0,0,0,0,0,0,0,0,0,-0.09941887848602275,-0.2515969576355168,-0.10611202789688443,-0.14356006903172364,3.258617658450324,3.258669586023043,0.010690392338084262,-1.8055071479686673,0.5716104592812609,0.8994276522907796,3.259094054590947,3.2590322922506676,42279592
0,0,0,0,0,0,0,0,0,0,0,0,0.166093095075261,-0.30123106255901605,-0.36943202846432066,-0.26684989534019177,3.2584736774532406,3.2586483429251123,0.9027171853443604,-1.9716781344030063,0.30051509148062366,0.29668779333684364,3.258992166399022,3.2592384289787324,42280648
0,0,0,0,0,0,0,0,0,0,0,0,0.7350025337937514,-0.29742736785738083,-0.21095458399708078,-0.6409270812186099,3.2588871310814773,3.2588033388618634,-0.596452688747965,-3.183155486959873,-0.43232418684055646,-0.8486035404924798,3.2592014502527054,3.258966596003365,42281705
0,0,0,0,0,0,0,0,0,0,0,0,-0.2062386162565489,0.4231625107720507,0.6215931083670984,-1.8169796010231494,3.258492953597659,3.2586538503949463,-0.3673690876208648,-2.782136938826673,-0.3473946747058242,0.16598963332052627,3.259536619131162,3.259083826432684,42282761
0,0,0,0,0,0,0,0,0,0,0,0,0.3206669236024527,0.8127837434749297,-0.44666406472492987,-0.1622693374478027,3.2589473198589465,3.2587832759360404,0.22016622068479308,-2.68740924446693,-0.5794692253433734,0.07733785835955839,3.2591459821636652,3.259079499134957,42283818
0,0,0,0,0,0,0,0,0,0,0,0,1.0259574444243245,0.140207986856459,-0.011060572989055273,0.20449392849134546,3.25870656474907,3.258681387744115,0.4864142282502923,-2.887107740295856,-0.785013900400865,0.4019135119811907,3.2594256829530814,3.2594658088047277,42284874
0,0,0,0,0,0,0,0,0,0,0,0,0.9691667758425206,-0.012358762307019508,0.26788529966894387,0.18103800785994623,3.25875062450774,3.258824581959794,1.4204661632139877,-3.217485119996681,0.9229225186017178,0.08234572200128101,3.259345431249789,3.2592958640212846,42285931
0,0,0,0,0,0,0,0,0,0,0,0,0.5020932080856809,0.14143654602009606,0.3715571250387579,0.15513598384094043,3.2588552664345816,3.2587986181734343,-0.7151154536146467,-1.1013893248306899,-0.79374835416655,-0.45472857412440465,3.258902473318871,3.259118051423794,42286987
0,0,0,0,0,0,0,0,0,0,0,0,0.2965056534416262,0.12039407734800307,0.8794803833342055,0.48212823654749826,3.2587018440606403,3.2582104990733263,0.7698742592184852,-2.3910955656880817,-0.20942704789960956,0.0718917574753472,3.259123558893628,3.2594028662923415,42288044
0,0,0,0,0,0,0,0,0,0,0,0,0.6430246404438782,0.5300569927760354,0.29379086420427136,0.4150653499442756,3.2588068793781853,3.2588273356947104,0.3671468218740012,-2.7025819304683125,-0.40497763216228866,0.018116822018244508,3.2591282795820566,3.2588769029232143,42289100
0,0,0,0,0,0,0,0,0,0,0,0,0.8476833996395349,-0.20139125602141092,-0.260359342141073,-0.1775742027251962,3.258758492321788,3.259067697413885,0.11904278028521302,-2.971961328025022,-0.2774722310867585,-0.09980636832789996,3.2591211985494133,3.2589752505988177,42290157
0,0,0,0,0,0,0,0,0,0,0,0,0.6225399997878074,0.21470438417248536,-0.502538526360813,-0.5534641329603354,3.258769507261456,3.258525998416662,0.40662397225188873,-2.457423598459196,-0.1734156696099841,0.31338840882639984,3.2592222999599336,3.259442205362583,42291213
0,0,0,0,0,0,0,0,0,0,0,0,0.18105098975312586,0.13808249689131938,0.3465402301001823,-2.5474943336837685,3.2589827250221637,3.2588053058153754,0.8308616198136353,-2.1533585492799934,0.323218455698306,0.09111243380456373,3.259433157376427,3.2591813873268825,42292270
0,0,0,0,0,0,0,0,0,0,0,0,-0.4194709324206033,0.858556325263539,-1.6480336365739865,1.8119048609620165,3.2587120722189034,3.25867076619515,0.1906520832362274,-2.050257927210084,0.35563306279576573,0.19113516701879105,3.2591156910795798,3.2592156123179925,42293326
0,0,0,0,0,0,0,0,0,0,0,0,-0.781420669725021,0.09605302763617368,0.016941370599433254,-0.7990473269280585,3.25900160777588,3.2585743854730587,0.5187721870866044,-1.6814081169853348,0.946905582774351,-0.3137227909234513,3.2593379568264433,3.2592498373091026,42294383
0,0,0,0,0,0,0,0,0,0,0,0,0.0006750584453414016,-0.04498265325816313,-0.1268142136113898,-0.08342085879097685,3.258741969912287,3.2587832759360404,0.7282373938843482,-2.3249886184917234,0.16137043969278808,0.22521145644324497,3.2594068001993657,3.2589878391012954,42295439
0,0,0,0,0,0,0,0,0,0,0,0,0.22825079301009094,-0.4788457845265608,-0.13838737468568976,-0.08224737432567766,3.258979971287247,3.2588112066759116,-0.6498649179774424,-2.9461651261049657,1.6849199157857795,-1.1068739780037375,3.2588257621319006,3.2590047549014987,42296434
0,0,0,0,0,0,0,0,0,0,0,0,0.8770039888625132,-0.4465672906121362,-0.6940930478683767,-0.07715689863644823,3.258671946367257,3.2582104990733263,0.5291258369834229,-2.787303338921468,0.6786418412496853,0.9494103013766171,3.2593733619896605,3.259143621819451,42297428
0,0,0,0,0,0,0,0,0,0,0,0,0.4729252544552391,-1.0403618383838937,-0.9554264253886253,0.192441617541506,3.25893158423085,3.2588532994810695,0.35291040574436255,-2.0896807896710383,0.374418649008113,0.47927536717359626,3.2590759586186357,3.259342677514872,42298422
0,0,0,0,0,0,0,0,0,0,0,0,0.74036995653748,-0.5491026102426779,-0.8042963390703605,-0.7077846178751729,3.258873362406893,3.2586636851625066,0.24625038459901624,-1.9744314759291977,-0.1267548116153254,0.8410732556668825,3.2589567612358046,3.2592203330064216,42299416
0,0,0,0,0,0,0,0,0,0,0,0,0.8001889467464621,-0.43981709954942455,-0.36664249499350726,-0.9373733326641718,3.2588513325275574,3.258551962203021,0.10091140281097923,-1.708943499200761,0.23370987578748173,0.6860383732364622,3.2593949984782933,3.2595059346563735,42300411
0,0,0,0,0,0,0,0,0,0,0,0,0.3874052628761843,-0.3494662701447332,0.2634258226663855,-0.38961257810742594,3.2589201759004798,3.259052355176491,0.5648586946557396,-1.9256392271088631,-0.3792408322382965,0.20461155231136707,3.2593328427473116,3.2592175792715046,42301405
0,0,0,0,0,0,0,0,0,0,0,0,0.2072830685714565,0.7379089043031817,-1.253542620365932,0.7343373101159704,3.2588592003416057,3.258496887504683,0.19038693790280078,-2.8522289338384783,-0.7785150859969956,0.40297212636138513,3.259305698788845,3.2590814660884693,42302399
0,0,0,0,0,0,0,0,0,0,0,0,1.3174493333636919,-1.8759465069707044,2.348228567627497,-1.6607381893084274,3.2588281224761153,3.2587160061259275,0.7525076332697431,-2.5895116078271396,0.01872028335574667,1.2217074777731274,3.25914676894507,3.25937493555247,42303393
0,0,0,0,0,0,0,0,0,0,0,0,0.8127329960743184,-0.12103097689521036,-0.744891982661722,-0.6182622692897641,3.258660538036887,3.258516557039804,0.8430882028446439,-2.441059332020203,-0.3686299048220998,0.6808267332108894,3.259149129289285,3.259371001645446,42304388
0,0,0,0,0,0,0,0,0,0,0,0,0.6519243183045766,-0.1932547561233945,-0.4685283265743645,-0.4998304247653991,3.2590448807531454,3.259025604608727,1.291373824044922,-2.270154281873021,0.43690876208648227,0.11446449929052582,3.259128672972759,3.259071631320909,42305382
0,0,0,0,0,0,0,0,0,0,0,0,0.15084881196603916,0.1547850793343877,-0.16497311174549004,0.1767111035241012,3.258668799241638,3.2588234017876863,0.39470580753157225,-1.0074956187600634,-0.9930939785354111,0.23404465127523555,3.25885172591826,3.2590598295998365,42306376
0,0,0,0,0,0,0,0,0,0,0,0,0.7503164470573004,-0.40968809243298676,-0.564570732661573,-0.5610919786801313,3.2587266276748927,3.2588572333880936,1.609626902297366,-2.2651196676635346,0.32218265797885154,0.5209263945730203,3.2593214344169414,3.259515769423934,42307370
0,0,0,0,0,0,0,0,0,0,0,0,0.8320335307161248,0.09759983987806319,-0.34740844338040866,-0.6425321152844565,3.2592116784109684,3.259025604608727,1.0393697070324073,-2.2881696090900427,0.431272260102303,0.2647582369754597,3.25933913699855,3.259221119787826,42308365
0,0,0,0,0,0,0,0,0,0,0,0,0.23413591791819546,0.1796670412620355,-0.25828892687427124,-0.35777625534251395,3.259118051423794,3.2585433076075683,0.12417849590522002,-2.9222025182488585,-0.08856955630416348,-0.3283537779276106,3.259372575208255,3.2593497585475157,42309359
0,0,0,0,0,0,0,0,0,0,0,0,0.9065873630747036,-0.36370662018139605,0.30213035370473307,-0.6145057814724185,3.2592002700805986,3.258775408121992,-0.09644877868280155,-3.0906032431844763,-0.2958199734473197,-0.15849711400236058,3.2593273352774776,3.2592034172062174,42310353
0,0,0,0,0,0,0,0,0,0,0,0,0.8185347221535113,0.1135774032565836,0.3975409743238657,0.024781647298532404,3.2590913008560296,3.2586648653346137,0.2888719068612941,-2.6537117902889,0.5851879459843572,0.30348243754892795,3.2592722605791398,3.259024817827322,42311347
0,0,0,0,0,0,0,0,0,0,0,0,1.2804001904011,0.01987291811381794,-0.470772620531633,1.2095827829340438,3.2586865018232465,3.2586396883296596,1.0003052235013514,-1.962747378676817,0.6210553432768992,0.8664040763859839,3.2593230079797513,3.2594874452933604,42312404
0,0,0,0,0,0,0,0,0,0,0,0,-1.306069327124277,0.9031156901259052,-0.9200531268183144,-0.1893428789785956,3.258612937761895,3.2587152193445226,0.9618504955590362,-2.4028563741274325,0.19181455276185902,0.6606650663215,3.258909947742217,3.258941025607708,42313460
0,0,0,0,0,0,0,0,0,0,0,0,0.6858153207081937,-0.46616837575058645,-0.5500868737801162,-0.5198677801928259,3.2588717888440835,3.25863496764123,0.45357751292914306,-2.167212983037589,0.31130815879203777,0.4109654320437231,3.259321041026239,3.259354085845242,42314517
0,0,0,0,0,0,0,0,0,0,0,0,0.10585435698680365,-0.5058473355588121,-0.6368011995316982,-0.3621582343766968,3.2587514112891447,3.2586322139063135,0.6373971864458545,-1.8691030823115207,0.40180454275662214,-0.30096158992786287,3.259490985809682,3.2593717884268507,42315573
0,0,0,0,0,0,0,0,0,0,0,0,-0.12306047952896113,-0.7467582281539712,-0.4763410659242947,-0.73115871324047,3.2585153768676967,3.2588473986205333,0.9576191851638777,-1.4017234565882035,0.24070003517866553,0.09127451077395805,3.2592746209233545,3.259208531285349,42316630
