0,0,0,0,0,0,0,0,0,0,0,0,0.45946893208848616,-0.25393015789153073,-1.0307878888592588,-0.03536700431907228,3.2587018440606403,3.258615691496812,1.0189767264099985,-0.21018865229948192,-0.12416708757485002,0.3523415627886728,3.259136540786807,3.259179026982668,138572244
0,0,0,0,0,0,0,0,0,0,0,0,0.6518916668762763,-0.7153027075889954,0.8331637422041585,0.0506313503541172,3.258290357385916,3.2585342596214124,0.36827663997133253,-0.14192474388179108,-0.13885078893313274,0.3124906912434925,3.2592828821281055,3.2590244244366193,138573301
0,0,0,0,0,0,0,0,0,0,0,0,-0.3561487980066297,1.3529072109350215,-1.3166597982239483,1.9523189845465403,3.2590027879479866,3.2587596724938956,0.3939261071593889,0.06826548198050045,-0.13673788747047036,1.1372103020203472,3.2591243456750325,3.259138114349617,138574358
0,0,0,0,0,0,0,0,0,0,0,0,1.3264733226863528,0.37691195928000915,0.3710354889673577,0.1984931467167314,3.2586377213761475,3.2585303257143883,0.5126986280320439,-0.06031151536840383,-0.11509353102368484,0.8387782143090027,3.259470922883859,3.2592868160351296,138575414
0,0,0,0,0,0,0,0,0,0,0,0,2.1518420281221897,0.4774579021284463,0.769596131991879,0.6397433685950479,3.258902079928169,3.258423323443332,-1.8056196577095576,-0.08280166182537815,-0.14253685981474634,-2.303580689857088,3.2598690342747014,3.2594780039165023,138576471
0,0,0,0,0,0,0,0,0,0,0,0,2.078229186323784,0.6344978969690677,0.2618805839873056,-0.4263540895407307,3.258912701477134,3.2589233230260994,-1.0548079317579186,-0.5297049080973754,-0.11350777310225643,-1.3561137385503934,3.259321041026239,3.258981938240759,138577528
0,0,0,0,0,0,0,0,0,0,0,0,0.9288162981052753,-0.1974014875175342,-0.8424874952420587,-1.1740820257761508,3.2589662026126627,3.258728594628405,-1.730024913552393,-0.2612094594489884,-0.10928433052114611,-0.4091542612498118,3.2593957852596978,3.2591872881874187,138578584
0,0,0,0,0,0,0,0,0,0,0,0,-0.026022794964646694,-0.640806310272969,-1.5518075170287509,-2.15697499000728,3.258820254662067,3.25879468426641,-0.7899635422186305,-0.2802515363993092,-0.10509511293114578,0.6135655776936505,3.2593603800964805,3.259332055965907,138579641
0,0,0,0,0,0,0,0,0,0,0,0,-0.4978060362107797,-0.1907134521858039,-0.8303557193703317,-1.521923985710619,3.2586577843019704,3.258797438001327,-0.23360484046993737,-0.15865525706473074,-0.13580555150575058,0.9218269254954964,3.2588178943178523,3.258765966745134,138580698
0,0,0,0,0,0,0,0,0,0,0,0,0.26844116073145396,-0.5070873030528191,-0.8380941078775057,-1.143155615705921,3.258701450669938,3.2584992478488974,-0.6907358516139807,-0.2723514643134432,-0.11004514813961365,-0.7440532736841766,3.2592219065692314,3.259385557101435,138581754
0,0,0,0,0,0,0,0,0,0,0,0,0.7283121381178067,-0.3652620870187386,-0.2574801155901093,-0.6268232377556846,3.258843858104212,3.258920962681885,-0.5471384104655278,-0.11571626850560528,-0.12965842838983874,-0.5247403174329183,3.2591900419223356,3.259293110286368,138582811
0,0,0,0,0,0,0,0,0,0,0,0,-0.8413757731170383,0.930403236198811,0.09756954879397735,-0.7073274978789684,3.258818287708555,3.2587148259538203,-0.25558633274869114,-0.2106473458584959,-0.13623238041786914,-0.06136658923227658,3.259087760339708,3.258854479653177,138583868
0,0,0,0,0,0,0,0,0,0,0,0,2.4466702636087256,-2.1798117136730806,1.3371774836990216,-1.4578347394269393,3.2589874457105927,3.2586703728044473,0.45546028083089357,-0.24407926131239668,-0.1393775390836643,0.50731074897179,3.2592754077047594,3.259422535827462,138584924
0,0,0,0,0,0,0,0,0,0,0,0,0.5398756313175715,-0.17526539269273195,-1.4799228405860472,-1.2245882778869006,3.258799011564137,3.258907587398003,0.31928218832995753,-0.18192156337756674,-0.14247077017674092,0.20682201466822797,3.259156210321928,3.259075565227933,138585981
0,0,0,0,0,0,0,0,0,0,0,0,0.2245371847793084,-0.5169889470325645,-0.45890284286771327,-0.49996457099492203,3.258769900652158,3.2587266276748927,0.8053455120736971,-0.15341804664350112,-0.1203775549385017,1.3481892762409777,3.2592958640212846,3.259099168670078,138587038
0,0,0,0,0,0,0,0,0,0,0,0,0.6941154711384142,-0.2879883513436736,-0.6826642611818624,-0.6379266903313029,3.258966596003365,3.2585991690873106,0.5447446280413423,-0.057488150297182836,-0.13598021697762214,0.8155189890288101,3.259134180442593,3.2593194674634294,138588094
0,0,0,0,0,0,0,0,0,0,0,0,0.6623058989412663,-0.2631126836672644,-0.6952629918173542,-0.9050826436379723,3.258603496385037,3.258747083991418,0.6832472662028392,-0.2756311625994638,-0.1278346690934502,0.5030168894549476,3.2590507816136816,3.2590661238510754,138589089
0,0,0,0,0,0,0,0,0,0,0,0,0.1274448189073585,-0.5872276767763707,-0.799967074390301,-0.9646990376352116,3.2589858721477833,3.2585035751466243,0.0017218711044634702,-0.12543459241802601,-0.13106480015096664,-0.26298640525178973,3.2592565249510432,3.258957548017209,138590084
0,0,0,0,0,0,0,0,0,0,0,0,-0.331352595252108,-0.09325287261639506,-0.5431919149389166,-0.4017817260958822,3.258839530806485,3.2587053845769622,-0.1248413592387866,-0.13045976525065484,-0.12495229541686718,-0.2746087401638913,3.2590283583436435,3.259284062300212,138591078
0,0,0,0,0,0,0,0,0,0,0,0,-0.4592085074434885,0.2862448437505774,0.6371981307504332,-0.185956571812221,3.258743936865799,3.258609003854871,-0.015065683730326143,-0.2112622155263681,-0.11896449553543274,-0.4351137203113699,3.2592368554159226,3.259294683849178,138592073
0,0,0,0,0,0,0,0,0,0,0,0,1.2272826108077302,-0.07843227129367247,0.3574296781336877,-0.6288834248642236,3.259018916966786,3.2591404746938313,-0.06684770188900255,-0.16359231038001898,-0.130529395404982,0.3532770458790118,3.259315926947108,3.2591503094613916,138593067
0,0,0,0,0,0,0,0,0,0,0,0,2.451955861086352,0.18830354074281938,0.06648420887997257,1.285593341063659,3.258627099827182,3.258677453837091,0.7762641043977861,-0.025778892729150384,-0.13044757013888003,0.886097214948799,3.2590598295998365,3.259048027878764,138594062
0,0,0,0,0,0,0,0,0,0,0,0,-0.03412388969944592,0.4363780780289266,-0.5040102009785415,-1.225777104589594,3.2587301681912146,3.2590539287393003,0.2577629635051445,-0.17640465216692114,-0.12890193806909775,0.2323294678127131,3.259087760339708,3.2590558956928124,138595056
0,0,0,0,0,0,0,0,0,0,0,0,0.713114668502172,-0.28343170683761915,-1.0118949069851526,-1.3117546095555555,3.2593304824030973,3.258871395453381,-0.8757954926246991,0.7054765946241134,-0.13517927350750847,0.8831574062296635,3.2591573904940354,3.25934071056136,138596051
0,0,0,0,0,0,0,0,0,0,0,0,0.7578463384921954,-0.3006358624262646,-0.9323583879898056,-1.0419700195753598,3.258614904715407,3.2585920880546673,2.5873526796522945,-1.018262328894416,-0.09211558009571791,-0.549179714820351,3.258787996624469,3.258642048673874,138597046
0,0,0,0,0,0,0,0,0,0,0,0,0.6454542214219834,-0.2204518223347452,-0.7785481308159984,-0.9928976765749068,3.2591164778609842,3.258738036005263,-0.16346367162032982,-0.24553952759975523,-0.11077410111118567,-0.9082970390673921,3.2593202542448347,3.2591534565870113,138598040
0,0,0,0,0,0,0,0,0,0,0,0,0.7459643657165009,0.0014685274921092382,-0.41573293396627115,-1.0623893573748298,3.2589559744543997,3.258623952701563,-1.7262019427063395,-0.27305760062427525,-0.10969070311673916,-1.166957720155444,3.2590527485671936,3.2590889405118153,138599035
0,0,0,0,0,0,0,0,0,0,0,0,0.5512068571098873,0.13383977816579082,-0.10307465828355053,-0.6772366496606647,3.2585181306026136,3.2587938974850053,-0.9389642046647315,-0.17263832958201522,-0.1158578891584741,-0.4504976571199485,3.2591424416473433,3.258782489154635,138600029
0,0,0,0,0,0,0,0,0,0,0,0,1.5064401276636274,0.3452558094568025,-0.5132596031736854,-0.0653233129171506,3.2591758798570485,3.258991379617617,-0.5467576082655917,-0.1806206203246856,-0.11938385002420544,-0.3914662350971979,3.2592785548303786,3.2594355177206418,138601024
0,0,0,0,0,0,0,0,0,0,0,0,2.0966083999405383,0.33239940791123007,-0.21547542994921565,-0.11646882491932212,3.258997280478153,3.258871395453381,-0.3526126089826356,-0.14460373456522638,-0.12141138570444412,-0.09935121528520766,3.2594870519026578,3.2589815448500565,138602018
0,0,0,0,0,0,0,0,0,0,0,0,2.5734085528145494,-0.01800077176103255,-0.20759188027285103,0.10468126591220688,3.2586530636135413,3.258590514491858,0.062179727814165094,-0.20769101472985918,-0.12657463867362007,0.0024677398762392847,3.2593359898729313,3.2590507816136816,138603013
0,0,0,0,0,0,0,0,0,0,0,0,0.5698551499670922,-0.19382910654891808,0.019764342279951844,-1.7345166485925494,3.2592222999599336,3.258833629945949,0.02889966117139592,-0.15030199888968454,-0.1362315936364643,-0.025748208254362134,3.2594335507671297,3.259235675243816,138604007
0,0,0,0,0,0,0,0,0,0,0,0,0.1557835049371129,-0.36199025654676636,-0.534642354803366,-1.0647536354963343,3.2587750147312895,3.258555896110045,0.49240281491313154,-0.20941013209940576,-0.1190569423504999,0.3223659780461762,3.259138114349617,3.25900003421307,138605064
0,0,0,0,0,0,0,0,0,0,0,0,-0.37513068617948125,0.19657654721457327,-0.7769899102437389,-0.8814237334041277,3.2589284371052307,3.2584953139418733,2.468290623222664,-0.5167757292718564,-0.14651876050457485,-0.17977679726800885,3.2590869735583032,3.2588961790676327,138606121
0,0,0,0,0,0,0,0,0,0,0,0,1.0885203347826402,-0.15942433588794896,-0.048117190374993124,0.07399915146817582,3.2590299319064533,3.258600349259418,-0.34022158863801816,0.033693913661708076,-0.1284247551470703,-0.5324134030834917,3.259105069530614,3.259050388222979,138607178
0,0,0,0,0,0,0,0,0,0,0,0,1.6757023782375309,-0.11694600784134958,0.09744130342499058,-0.0745825498798549,3.2585090826164578,3.258491773425552,-0.03408061672218045,-0.1622834995130896,-0.12393065976269957,0.09579338977258083,3.25958028549913,3.2591648649173814,138608234
0,0,0,0,0,0,0,0,0,0,0,0,0.4012530089918386,0.7706952656144219,0.3555185861013634,0.4125311270393285,3.2588658879835473,3.2588131736294237,0.1322363176627538,-0.15465762074680575,-0.12431814960457678,0.3667247136503117,3.2594658088047277,3.258981151459354,138609291
0,0,0,0,0,0,0,0,0,0,0,0,2.4268543871467574,0.5228193906330335,0.19413909842241983,0.6727807131744281,3.259075171837231,3.2588796566581317,0.13279257211596632,-0.07975327727237667,-0.13054434425167372,0.1847732525793615,3.2591849278432043,3.2590936612002444,138610348
0,0,0,0,0,0,0,0,0,0,0,0,1.7415327717700924,0.3656110245717793,0.6152866620167091,0.5183485053001052,3.25853543979352,3.2587891767965766,-0.12946448677354894,-0.07854478103456271,-0.133575419613769,0.172362169308921,3.2591613244010595,3.259258098513853,138611405
0,0,0,0,0,0,0,0,0,0,0,0,1.9491388141082304,0.5771372052594668,-0.029983452556544846,-0.12049832588414262,3.2590110491527375,3.258998067259558,-0.5176183721564259,-0.15596407126952064,-0.13683151445764477,1.3688654981691237,3.2594245027809743,3.259206170941135,138612461
0,0,0,0,0,0,0,0,0,0,0,0,0.5563103146922963,-1.9426022341969291,2.1776771757217857,-2.5283440742902843,3.258843858104212,3.258611757589788,1.9275648745971767,0.006723047104245079,-0.12040155177134891,2.4612886621104075,3.2590527485671936,3.2592537712161267,138613518
0,0,0,0,0,0,0,0,0,0,0,0,-2.309816325881043,2.0473421153237954,-0.867442234449653,-0.023948839181523223,3.258832449773842,3.258559043235665,0.61719067301639,0.0157218594219517,-0.11919030179861805,-0.03132570163317938,3.259203023815515,3.2591310333169736,138614575
0,0,0,0,0,0,0,0,0,0,0,0,-1.1787889455305272,0.21610918237080365,-0.33035416964938275,-0.5850895983087537,3.258859987123011,3.259085793386196,-0.12285237584738443,-0.08378749892562613,-0.1231037525062266,0.7490772663446982,3.2591585706661426,3.2589540075008876,138615632
0,0,0,0,0,0,0,0,0,0,0,0,-0.650895995008468,-0.8018533828083733,-1.3659835178832431,-1.9273677858552676,3.258751017898442,3.258474857625348,-1.427687242947488,-0.007622338249962121,-0.13406951833600025,-1.0772776218983675,3.2589878391012954,3.259256918341746,138616688
0,0,0,0,0,0,0,0,0,0,0,0,1.0609153224128869,-1.0127178803346013,-1.6018291117941272,-1.6455434734277097,3.258791537140791,3.258845825057724,-0.29004027724746195,-0.23710169042369011,-0.12593891929852,-0.765713759149761,3.259563369698926,3.2592089246760514,138617745
0,0,0,0,0,0,0,0,0,0,0,0,0.036164800663566664,-0.399199902915943,-0.520984223006275,-0.5801466441329294,3.2590814660884693,3.2586762736649835,0.18299001252532152,-0.01052162772674891,-0.09258096129667297,1.0867937429897478,3.259077532181445,3.2590224574831073,138618802
0,0,0,0,0,0,0,0,0,0,0,0,0.7898376571938582,-0.03441106491220771,-0.2840292673145851,-0.31088762413115784,3.259118051423794,3.2585236380724476,0.5927886477456865,-0.2359836740474312,-0.11240824608901097,-0.6446532779518698,3.259234101681006,3.2591884683595262,138619859
0,0,0,0,0,0,0,0,0,0,0,0,0.8713006104589236,-0.03362861080510745,-0.3582070181616566,-0.9099378716871585,3.2587761949033967,3.258799011564137,-1.1202232980994342,-0.2484860239608316,-0.1194204353595299,-0.7821386077569255,3.2596329998532534,3.2593072723516547,138620915
0,0,0,0,0,0,0,0,0,0,0,0,1.2137381689236366,-0.1084916482557831,-0.4616860820872881,-0.8329418698479975,3.2586042831664424,3.258684928260437,-0.980435845903855,0.014281262669713815,-0.10915018429162315,-0.6867240532307688,3.2591924022665504,3.2588922451606086,138621972
0,0,0,0,0,0,0,0,0,0,0,0,-0.4647368269845041,-0.5800392484711705,-0.41461963827844117,-1.7293022548320598,3.2587435434750964,3.2583257625491333,-0.42099256765753834,-0.2008562446661287,-0.13344992797969912,-0.15342788141106145,3.259073598274421,3.2589795778965445,138623029
0,0,0,0,0,0,0,0,0,0,0,0,-1.7655461270268114,0.8732168165703792,-1.408635331229607,0.27112880601034234,3.2586031029943348,3.2588068793781853,0.1642701225602773,-0.10094798814630367,-0.13251405149865764,0.41482852874142273,3.2593064855702503,3.259185714624609,138624086
0,0,0,0,0,0,0,0,0,0,0,0,0.09220960047359472,-0.1841949682468138,-0.5031234983353017,-1.1212972547170228,3.258817107536448,3.258434731773702,0.7927361598892402,0.08743580429980806,-0.1222150829094747,0.8569599457931453,3.258935124747172,3.258784062717445,138625142
0,0,0,0,0,0,0,0,0,0,0,0,0.2661067803033328,-0.017666783054683572,-0.2268593700956547,-0.34192890428649236,3.259056289083515,3.258870608671976,1.9055991179465195,-0.6594923686376057,-0.16520363869710428,-0.5546246355324549,3.259492952763194,3.259469349321049,138626199
0,0,0,0,0,0,0,0,0,0,0,0,0.5163485069690356,-0.15384959624404862,-0.6263094694983327,-1.104632437781386,3.25859090788256,3.2586247394829675,1.7435485057292586,-0.416796662425597,-0.10165215750362366,0.6258570701905573,3.259409947324985,3.259156210321928,138627256
0,0,0,0,0,0,0,0,0,0,0,0,-0.17107971561905333,-0.7576492497502862,-1.335726658788521,-1.445045214300777,3.2590763520093384,3.2586636851625066,0.808293581997583,-0.17197743320196068,-0.13433112315310516,0.9422710469092187,3.259230167773982,3.2587474773821206,138628313
0,0,0,0,0,0,0,0,0,0,0,0,0.5315581716964449,-1.0107186687849363,-1.6026269081386217,-1.1225734141556518,3.258529538932984,3.258821434834174,1.7087904702175223,-0.15971741196124695,-0.1324810066796549,0.8401011872412188,3.259107429874829,3.259408373762175,138629369
0,0,0,0,0,0,0,0,0,0,0,0,0.6657689172946116,-0.5440082006464244,-0.7127149835485199,-0.8443218760874123,3.258673913320769,3.258896572458335,0.03354245824127892,-0.16731693355046912,-0.1227898267257007,-0.06838349919122447,3.258990592836212,3.2592809151745934,138630426
0,0,0,0,0,0,0,0,0,0,0,0,1.2125638976769326,-0.06401961612935259,-0.04994291662489374,-0.047747796505426945,3.25916958560581,3.258514983476994,-0.7356138629453018,-0.18189245246558813,-0.14824220517184794,-2.372088107119573,3.2591577838847376,3.2588662813742495,138631483
0,0,0,0,0,0,0,0,0,0,0,0,0.471662470300492,-0.118643095331561,-0.022352066320427216,0.04214827324727455,3.258314354218763,3.2585716317381417,-1.093434964827891,-0.02983711121524706,-0.1327040592079233,1.1092154394645024,3.2591318200983785,3.2593564461894564,138632540
0,0,0,0,0,0,0,0,0,0,0,0,-0.1581981370685264,1.4049870258554251,-0.5733822910049309,-0.9167061587221811,3.259038193111204,3.2589488934217563,0.3180516622128084,-0.2270076783904646,-0.11063248045831685,-0.668129261509092,3.2591526698056064,3.2588473986205333,138633596
0,0,0,0,0,0,0,0,0,0,0,0,2.6557822055557017,-1.859378070757159,-0.08217105652940947,-0.21798526263061316,3.2589386652634937,3.2587077449211765,-0.6928806177235385,-0.1500097095977914,-0.14030161384363338,-0.07674305161750931,3.259273047360545,3.2591597508382497,138634653
0,0,0,0,0,0,0,0,0,0,0,0,0.533077053198463,-0.5117493762671204,-0.2086182366154476,-0.6451162988086102,3.2585818598964043,3.258795077657113,-0.031502334058563,-0.06078358421129992,-0.14688028656009275,0.4391463684018097,3.2591459821636652,3.259232528118196,138635710
0,0,0,0,0,0,0,0,0,0,0,0,0.4243816285588298,0.3151747960060592,0.16275792870020014,-0.3571251937300198,3.259081072697767,3.2590362261576917,-0.38366411729623284,0.2606469107445372,-0.1167642613368346,0.77209022904518,3.259138507740319,3.2592014502527054,138636767
0,0,0,0,0,0,0,0,0,0,0,0,0.6381159112591637,-0.16759034008864643,-0.49309203542375984,-0.8685488424955418,3.258972103473199,3.258846611839129,-0.1949951165908714,-0.3083471069749721,-0.12991845964413398,-0.9511223377135203,3.2593639206128024,3.2591314267076763,138637823
0,0,0,0,0,0,0,0,0,0,0,0,0.8154363769813033,0.045271402033734566,-0.4257486612497164,-0.6420655539113943,3.25859090788256,3.2585826466778096,-1.1758156986016866,-0.22402853060108785,-0.131608466101702,-0.00761643738942592,3.2588957856769305,3.259267146500009,138638818
0,0,0,0,0,0,0,0,0,0,0,0,-0.5833000640034752,-0.41134820119717136,-0.6083319077887425,-0.6564888306246793,3.258616478278217,3.258878476486024,-1.0652626830652574,-0.20988534806792117,-0.13576385209129477,-0.32105362666292503,3.2591546367591184,3.2588678549370593,138639813
0,0,0,0,0,0,0,0,0,0,0,0,0.31034474496182735,-0.1958499545872157,-0.6209601427269151,-0.9230786947105758,3.2588296960389247,3.258679027399901,-0.6752771705719436,-0.14666549523657502,-0.13464819605925038,0.11328432718328561,3.2594174217483305,3.2592329215088984,138640807
0,0,0,0,0,0,0,0,0,0,0,0,1.3285929117909563,-0.08120095505725801,0.41232577709266865,-0.4962080831775764,3.258813567020126,3.2585067222722435,0.12025914433707527,-0.2181540272419485,-0.12262224228647259,0.4409795690750562,3.2589197825097775,3.2594677757582398,138641802
0,0,0,0,0,0,0,0,0,0,0,0,1.6265143783705684,0.6858066661127408,0.23031137350933234,-0.30138684527717174,3.2586778472277933,3.2589732836453056,-0.07645941692106925,-0.200019109251393,-0.13948178761980384,-0.3531118217839982,3.25940916054358,3.25918256749899,138642797
0,0,0,0,0,0,0,0,0,0,0,0,1.6123310699857556,0.5812170602341962,-1.2077495822607973,-0.2593931745759457,3.2590043615107964,3.2584127018943665,-0.1349377316162266,-0.11192948960417386,-0.12513915600051354,0.35006737113802083,3.2593033384446306,3.259380443022304,138643791
0,0,0,0,0,0,0,0,0,0,0,0,-2.0132988707183443,0.629426304033554,-1.9433422021081688,-1.02068522223058,3.2588056992060777,3.2588328431645444,0.4351845306378043,-0.28792737578479954,-0.10214704300725971,0.11518833818296649,3.2591853212339066,3.2590913008560296,138644786
0,0,0,0,0,0,0,0,0,0,0,0,0.210144985931514,-0.11457189495228469,-0.4365857883198008,-1.1043248062520987,3.2587140391724154,3.258548028295997,0.3849300485765992,-0.19166742463915643,-0.1230246809750415,-0.5947548144763486,3.2597085308681164,3.25878484949885,138645780
0,0,0,0,0,0,0,0,0,0,0,0,-0.4956085557470984,-0.6585604260635883,-1.0062509305776275,-1.0675356945438021,3.2586916159023778,3.2584842990022063,1.9959613556815807,-0.3212782527540031,-0.09278552446192793,0.12558919496407447,3.258787603233767,3.258981938240759,138646775
0,0,0,0,0,0,0,0,0,0,0,0,0.18541447942429534,-0.6419144918816675,-0.8130146638172464,-0.39352445525222485,3.258868641718464,3.2586530636135413,0.1399349737089841,-0.1263551266616734,-0.1206210637832956,-0.037036161069412356,3.2592828821281055,3.2592699002349255,138647770
0,0,0,0,0,0,0,0,0,0,0,0,0.5747540443842464,-0.14338815729476895,-0.4435370020314457,-0.3822172262927563,3.2584512541832034,3.258690042339568,0.3216622020795586,-0.1721296754037947,-0.12753883928523532,0.558885056839592,3.259319074072727,3.2593820165851133,138648764
0,0,0,0,0,0,0,0,0,0,0,0,0.5271057757265301,-0.3344863455875332,-0.5078056344754259,-0.23827399471688207,3.259023637655215,3.2585791061614877,0.7573526331606666,-0.18308127916828146,-0.0991911052693254,0.6478236136226193,3.259031505469263,3.259085793386196,138649759
0,0,0,0,0,0,0,0,0,0,0,0,-0.1024397256898553,-0.5922776332232514,-0.5198595189880751,-1.0508020342352429,3.2590377997205016,3.2587179730794396,-0.27979126927748554,-0.15075361141605514,-0.1361135764257403,-0.6608806444264227,3.259315926947108,3.2593713950361485,138650754
0,0,0,0,0,0,0,0,0,0,0,0,0.29336088816653344,-0.3597628783897016,-1.1694419824411848,-1.2540929739586084,3.258607036901359,3.2583993266104847,-0.8755873889431225,-0.34607052160150065,-0.13394048618560864,-0.5711525525036517,3.2596939754121275,3.259562189526819,138651748
0,0,0,0,0,0,0,0,0,0,0,0,0.07921629896358238,-0.7365690155707616,-0.940667979796884,-0.342605142903941,3.258907980788705,3.258898539411847,-0.21836960534687103,-0.18555610007716417,-0.11794797396039652,-0.23254819304325497,3.259113330735365,3.259031112078561,138652743
0,0,0,0,0,0,0,0,0,0,0,0,0.21411272455605562,-0.4466436084084044,0.5958531613174869,-1.472432681612096,3.259020097138893,3.2588289092575202,0.24726100531351627,-0.2913007010579945,-0.12799163198371316,0.7082724223461655,3.2594603013348937,3.259415848185521,138653737
0,0,0,0,0,0,0,0,0,0,0,0,2.1031662229497696,0.7434128336206476,0.48987016557099405,0.7345178764483781,3.2584571550437396,3.258555896110045,0.6968275066408522,-0.06483432827405074,-0.1117874755606026,1.1879400000500677,3.259107429874829,3.2588025520804584,138654794
0,0,0,0,0,0,0,0,0,0,0,0,1.7433085374007864,0.6907594550561255,0.4619370653554279,0.6297095453392917,3.2589957069153437,3.258723087158571,0.3792542075221786,0.02055899149882692,-0.12609863592369983,0.21489399849104862,3.2590067218550107,3.2589248965889093,138655851
0,0,0,0,0,0,0,0,0,0,0,0,1.5124019637587027,0.3784910295594966,0.1790144060867317,-0.15894557940311185,3.258710892046796,3.2588890980349894,-1.7524218264128955,0.16094400417137195,-0.1374200269484552,-1.788802598572087,3.259219152834314,3.2592400025415422,138656908
0,0,0,0,0,0,0,0,0,0,0,0,-0.23922206630969836,0.32885889158950943,-0.11769148322242298,-0.5758862228257922,3.258655423957756,3.258377690121852,0.06203141951935524,-0.20563554830974914,-0.11666552027052882,-0.08225327518621386,3.2594571542092745,3.259010655762035,138657965
0,0,0,0,0,0,0,0,0,0,0,0,-0.41090878378257556,-0.17975044009094715,-0.6451520973625299,-0.41363773508521734,3.2591908287037406,3.2586865018232465,-1.0645813303686775,-0.20932673327049414,-0.13716314281977926,-0.2977916476478157,3.259085793386196,3.2592187594436117,138659022
0,0,0,0,0,0,0,0,0,0,0,0,0.33275778684112867,-0.023769059630520298,-0.3910095084916959,-1.029980257747204,3.2588863443000724,3.258679027399901,-0.3263553531593505,-0.2000789046381598,-0.1359164876838312,0.7429981998203038,3.2594579409906794,3.259370608254743,138660078
0,0,0,0,0,0,0,0,0,0,0,0,1.7349753421515632,-0.009817064978726503,0.311836482505379,-0.167842110138191,3.258585400412726,3.258699090325724,0.6090958725328293,-0.18795853709680282,-0.10980872032746318,0.46772108885301217,3.259083826432684,3.259201843643408,138661135
0,0,0,0,0,0,0,0,0,0,0,0,2.4965887900100694,-0.018732871858223896,0.18567411728788819,-0.593821691730224,3.258972103473199,3.2588178943178523,0.8017829658726412,-0.3014096619379117,-0.1297772323819676,1.2677302560484713,3.2593064855702503,3.259212071801671,138662192
0,0,0,0,0,0,0,0,0,0,0,0,1.0498354732794133,-0.7088318239249973,0.7858364803596115,-0.9134150521057905,3.2586802075720076,3.2588898848163943,1.0941599838924387,-0.11473515209378625,-0.12917023052814372,1.4751309484399495,3.2591668318708935,3.259490985809682,138663249
0,0,0,0,0,0,0,0,0,0,0,0,-0.6016029598239612,1.8454504663289149,-2.053246909767021,-0.42796541785781594,3.2585968087430963,3.2584485004482864,1.5620392158078211,-0.10347434323720255,-0.12320288696323478,1.0094787012909294,3.2590869735583032,3.2587057779676645,138664306
0,0,0,0,0,0,0,0,0,0,0,0,-0.3304674661716778,-0.1965155716556992,-1.1509506524742426,-1.504293001209855,3.258585007022024,3.259001214385177,0.5221274163874884,-0.14668437799029085,-0.1306808508254112,0.6669526299181735,3.2590444873624427,3.259422535827462,138665362
0,0,0,0,0,0,0,0,0,0,0,0,-0.35269561442084485,-0.6082496891319381,-1.352154654521305,-1.684769247146755,3.2589988540409625,3.2589874457105927,2.2175272604855607,-0.9024276497873842,-0.10252863198860072,-1.1399758386583134,3.259273047360545,3.259281701955998,138666419
0,0,0,0,0,0,0,0,0,0,0,0,0.07413762499542535,-1.001741886346565,-1.4517076792368506,-1.6270336540977541,3.258957548017209,3.258697516762914,-1.1685906849611623,0.036660079557905144,-0.14155889052854662,0.5529220405724097,3.259147162335773,3.2589256833703137,138667476
0,0,0,0,0,0,0,0,0,0,0,0,-0.7766771646353202,-0.38185884736285775,-0.966605408979107,-1.0815828897455797,3.258721513595761,3.2588698218905714,1.2234844235759286,-0.10877056226379421,-0.14017887594448042,0.6851976973054047,3.25921521892729,3.259200663471301,138668533
0,0,0,0,0,0,0,0,0,0,0,0,-0.17974807974673268,-0.40644301252877857,-0.9158037204508448,-0.656842488866149,3.259024817827322,3.258877296313917,0.42252128392711685,-0.19599472236570387,-0.10963405485559163,-0.1477355179471395,3.2592077445039442,3.259595627736524,138669590
0,0,0,0,0,0,0,0,0,0,0,0,1.4088682185254355,-0.4346975129482165,-0.36634037093405375,-0.09512305201566838,3.258983118412866,3.2584776113602647,-0.18703800285315544,-0.10002194643282251,-0.11987244127660289,0.7749497860610229,3.259357626361564,3.2588407109785926,138670646
0,0,0,0,0,0,0,0,0,0,0,0,1.766502066433676,-0.6047410374571129,-0.32684709153736724,-0.5738036124472156,3.258533472840008,3.258978004333735,0.9871175869843467,-0.05916792859648807,-0.13680555067128547,0.5228304055727011,3.259241576104352,3.2591058563120194,138671703
0,0,0,0,0,0,0,0,0,0,0,0,1.816046478277025,-0.518176986953853,-0.7353074115881217,-0.9517553033537033,3.2586550305670534,3.258684928260437,-0.34879081830868935,-0.12371508165777702,-0.12523120942487828,-0.661375923320761,3.258963055487043,3.259051568395086,138672760
0,0,0,0,0,0,0,0,0,0,0,0,1.2787042830829958,1.5903377759859294,-1.4546384399698304,0.7758408160019893,3.2588997195839546,3.258599562478013,-0.6514947356575412,-0.2001312256015808,-0.14583268711956585,-0.5187442563467332,3.2595370125218643,3.259377689287387,138673816
0,0,0,0,0,0,0,0,0,0,0,0,1.3830924729219045,-0.3873124226704147,0.4361562056727655,-0.6308401502180279,3.258561010189177,3.258677060446389,0.003086936841837983,-0.01946339839260559,-0.13259036929492585,-0.04397596645068722,3.258937485091386,3.259109396828341,138674873
0,0,0,0,0,0,0,0,0,0,0,0,0.3854355556292004,0.10633075312742626,-0.0433618835642199,-0.47160031456951074,3.258826548913306,3.2587923239221954,0.6371001764655324,-0.2389175819060304,-0.12534489933787574,1.8732269970449205,3.259366674347719,3.2590861867768988,138675930
0,0,0,0,0,0,0,0,0,0,0,0,0.001483082948098534,0.27835185269735485,0.2139120952978248,0.08063525922718755,3.2589882324919976,3.258854086262475,-1.567385002062917,0.3732184139750497,-0.1333586613367392,0.0051447636061625005,3.2594563674278696,3.2593651007849096,138676986
0,0,0,0,0,0,0,0,0,0,0,0,1.3588064979084131,0.8017802121377243,0.950025957825894,0.8500712812031842,3.2588769029232143,3.2588808368302384,-1.3281676564416476,-0.20417134811536647,-0.12598258566648787,-1.0792394613313032,3.259185714624609,3.2590153764504644,138678043
0,0,0,0,0,0,0,0,0,0,0,0,1.5658519584956119,1.077723333564202,0.9746671646436649,0.5779369685574732,3.2591314267076763,3.258944959514732,-0.4412502218783166,-0.1345199506902636,-0.12198337578575322,0.42331357280177745,3.2591239522843303,3.2590374063297993,138679099
0,0,0,0,0,0,0,0,0,0,0,0,1.4919940342896025,0.5211824919202914,-0.004488194523834529,-0.1257630736545412,3.2590279649529412,3.2586876819953536,-0.19441997938394298,-0.18038340573113032,-0.10574853488785443,-0.6769754382342622,3.259173126122132,3.259075565227933,138680156
0,0,0,0,0,0,0,0,0,0,0,0,1.187290118609681,0.2831921318998494,-0.5408256698638999,-1.111989237307219,3.2587223003771664,3.2583831975916855,-1.1818629004791856,-0.2894730078545818,-0.11937204830313304,-1.4675872883304701,3.259018130185381,3.258780522201123,138681213
0,0,0,0,0,0,0,0,0,0,0,0,-0.5401871967538829,-0.7017598392677116,-1.5485085425983123,-2.3324913659681514,3.2585216711189355,3.258752984851954,-1.488398443269544,-0.03385677741250723,-0.10053060061104305,-0.30822869637354566,3.2593957852596978,3.259597594690036,138682269
0,0,0,0,0,0,0,0,0,0,0,0,-0.5013500930488219,0.02535127703562701,-2.0032500986158968,-1.6610312653817254,3.2591908287037406,3.258767540307944,0.4493068634637431,-0.20662138540999714,-0.09818363168044467,0.5719774928066125,3.259197122954979,3.258787603233767,138683326
0,0,0,0,0,0,0,0,0,0,0,0,0.329837647657114,-0.744723611441089,-0.08174658796150541,-0.146635990933894,3.258708138311879,3.258706171358367,0.5516907276738557,-0.12409313012279631,-0.10894365417285612,0.4000142216699387,3.259381229803709,3.2593277286681803,138684383
0,0,0,0,0,0,0,0,0,0,0,0,-0.6214680101237309,0.12417298843538623,-0.5185975216147329,-0.5439484052596575,3.2590999554514832,3.258902079928169,1.0095554124779,-0.030790690277897152,-0.13583662937124125,0.6847224813368894,3.2595189165495535,3.2593993257760197,138685439
0,0,0,0,0,0,0,0,0,0,0,0,-0.245761006565214,0.04148895043002968,-0.05378437683396063,-0.9597733926502934,3.258935124747172,3.2587482641635255,1.1929675332269112,-0.5683937035076264,0.12254002362966819,-1.5501277387294456,3.259166045089488,3.259025997999429,138686496
0,0,0,0,0,0,0,0,0,0,0,0,-0.14366943164699453,-0.22104190838836532,-0.5915526141587035,-0.618275644573646,3.2585173438212087,3.258413882066474,-0.04499878227696207,0.17826027611020517,-0.13824654081422577,-0.2959859843237381,3.2594410251904753,3.2593422841241697,138687552
0,0,0,0,0,0,0,0,0,0,0,0,-0.15747901886451468,-0.6357449454957181,-1.0440683655820329,-1.3707053864843113,3.2585936616174767,3.2589807580686516,0.18086530934158676,-0.14117494120299112,-0.12257031471375401,-0.01759754629105881,3.259031505469263,3.2592624258115794,138688547
0,0,0,0,0,0,0,0,0,0,0,0,-1.8495149790662502,-1.0767319889941203,-1.2002857804639078,-1.9889114009036304,3.2588446448856168,3.2585094760071605,-0.2288896595108103,-0.1933877221808102,-0.11781422112157595,-0.6553129858151657,3.259335203091526,3.2590149830597617,138689542
0,0,0,0,0,0,0,0,0,0,0,0,-1.384645972805735,-0.7005182982108947,-1.0188917540182774,-0.41051185256384043,3.2588017652990535,3.258437485508619,-0.3434886984215615,-0.136198942208164,-0.12438148550766533,-0.27539788191293263,3.2591967295642768,3.259229380992577,138690536
0,0,0,0,0,0,0,0,0,0,0,0,0.6006741643755632,-0.08653611976338861,0.7101272595080447,0.5876120194926285,3.2588352035087587,3.2587911437500887,0.29044507628024535,-0.0698429786971782,-0.12281224999573827,-0.0671395977901933,3.259372968598958,3.259338743607848,138691531
0,0,0,0,0,0,0,0,0,0,0,0,0.9442258053095107,0.4281892571674892,-0.057740707128132236,-0.13614229394701646,3.259066517241778,3.258843858104212,0.15747547834819295,0.03607628775552365,-0.12775953146928923,0.20129880920634377,3.259309239305167,3.259210104848159,138692526
0,0,0,0,0,0,0,0,0,0,0,0,2.650806206560875,-0.46574548074549205,-0.13949712985719798,0.11702468598183226,3.2588957856769305,3.25856809122182,0.19879920468320902,-0.1665309389270471,-0.1344998877644405,0.14473827418545177,3.2593820165851133,3.2593552660173493,138693520
0,0,0,0,0,0,0,0,0,0,0,0,0.3553309387363122,1.9367961808200098,-1.3758033365968867,-0.42904212821032145,3.258871395453381,3.2590342592041797,0.31347102087390666,-0.22847738605468107,-0.10461674983701107,0.7414596487831651,3.2591259192378423,3.2591522764149037,138694515
0,0,0,0,0,0,0,0,0,0,0,0,1.625748840063672,-0.17494320570745533,-0.5645164447446399,-0.7977113721026625,3.2587494443356326,3.258717579688737,0.35660631139353643,-0.17465170319696702,-0.12589840005617142,-1.1146698015534642,3.259366674347719,3.2589245031982066,138695509
0,0,0,0,0,0,0,0,0,0,0,0,1.2112275494608342,0.20555332965294473,-0.03295001184344433,-0.21467330630699472,3.2588237951783885,3.258706171358367,-1.985770962926264,0.2974541184251449,-0.09173281094226968,0.6621119573249766,3.2591849278432043,3.2589567612358046,138696504
0,0,0,0,0,0,0,0,0,0,0,0,0.9818268754275888,0.6294325982847926,0.4236082224378851,0.07354793233250764,3.2586263130457773,3.2584276507410586,-2.058493168174406,-0.10973436948470705,-0.10745781748984068,-0.4601849031668786,3.2586758802742812,3.2589138816492413,138697499
0,0,0,0,0,0,0,0,0,0,0,0,1.3667195518874586,0.7230662731011239,0.8615755989045618,0.5970266457827861,3.2586676190695307,3.2587341020982388,-0.23478107867015346,-0.325501301944411,-0.08601684403620291,0.1210349108022345,3.25923803558803,3.2590763520093384,138698493
0,0,0,0,0,0,0,0,0,0,0,0,2.0597575258919627,0.6675859889490591,0.942376082226763,0.19828661659796437,3.259108610046936,3.2589858721477833,-0.490713201846266,-0.20555726355996887,-0.1128991976856229,-0.06583511422099045,3.259558649010497,3.259378476068792,138699488
0,0,0,0,0,0,0,0,0,0,0,0,1.1575383731768576,0.2560702033126596,-0.16997192740105715,-0.09644641833858708,3.258537406747032,3.2584567616530373,-1.0034995560049482,-0.11466788228367356,-0.1150124925389877,-0.42629862145169034,3.2589807580686516,3.259134573833295,138700483
0,0,0,0,0,0,0,0,0,0,0,0,0.42383402870107034,-0.13997037887220132,-0.3577817628123477,-0.46990873454913307,3.258913094867837,3.2586806009627103,-0.8113891734348742,-0.26843683343372743,-0.1529923979034898,-0.04461955363983555,3.2595617961361163,3.2593875240549472,138701477
0,0,0,0,0,0,0,0,0,0,0,0,1.2926708331907788,-0.1166855831963519,-0.9133281127605573,-0.13831145028012398,3.259016163231869,3.258780128810421,-0.5314098634016351,-0.11944797270869884,-0.12369973942038291,-0.18326341906349883,3.259292716895666,3.2592553447789365,138702472
0,0,0,0,0,0,0,0,0,0,0,0,2.0323102631938768,-1.5566387482450899,0.05419389655517298,-2.425758007259131,3.2588918517699064,3.2587616394474077,0.07169899603116464,-0.2206721211280967,-0.12586299489295422,1.0466407473851143,3.2593867372735423,3.259030718687858,138703466
0,0,0,0,0,0,0,0,0,0,0,0,0.24937272660407142,-0.21573034712437952,-1.1332563320703903,-0.915198685550533,3.2589642356591506,3.2585968087430963,0.7734906999457717,-0.33001939416162895,-0.15398649620848848,0.5895026552084273,3.259053535348598,3.2590153764504644,138704523
0,0,0,0,0,0,0,0,0,0,0,0,-0.6366993113397731,-0.3327731290785228,-0.6117548002904415,-0.5887064324267426,3.2587238739399758,3.2582986185906666,0.6223043587570617,0.07563683696232282,-0.14730357495588958,0.17257735402314114,3.258933551184362,3.259351725501028,138705580
0,0,0,0,0,0,0,0,0,0,0,0,-0.39914718856181963,-0.5253579408357073,-0.6261808307386434,-1.256210989500402,3.2588218282248764,3.2586302469528015,1.866032667879184,-0.5291124616995408,-0.14773669811924672,0.8572085687170706,3.2591939758293598,3.259177060029156,138706637
0,0,0,0,0,0,0,0,0,0,0,0,-0.6202260756762118,-0.2508278788122986,-0.7321480908570398,-0.992340241949587,3.2588493655740454,3.258560616798474,0.7832377413794686,-0.0707084382424877,-0.1450187617562725,0.8903088558088369,3.259294290458475,3.2592238735227435,138707694
0,0,0,0,0,0,0,0,0,0,0,0,0.09472926792255257,-0.14754944414489796,-1.1379955098623644,-0.7112444891028987,3.2589197825097775,3.2582561323948065,0.41887809263206627,-0.11312854446512989,-0.14557698316299714,-0.2178892752992243,3.258883590565156,3.2592813085652956,138708751
0,0,0,0,0,0,0,0,0,0,0,0,0.6216556574887822,-0.08685751996726035,-0.5125900521981779,-0.8320886054144627,3.2591778468105606,3.2588662813742495,-0.2500847637754397,-0.09792005990982769,-0.13891766535254305,-0.5181962630982713,3.2592809151745934,3.259038193111204,138709808
0,0,0,0,0,0,0,0,0,0,0,0,0.18663910468090827,-0.9590231965807909,-1.4114095224630263,-1.0243437557630246,3.2586526702228387,3.2589874457105927,0.6466383274362477,-0.10555538005296945,-0.12990154384393024,0.8501873314603962,3.259075171837231,3.2593623470499926,138710865
0,0,0,0,0,0,0,0,0,0,0,0,-0.28114886059151417,-0.8896393048333293,-1.4690223776128741,-0.8080630550459689,3.2588890980349894,3.2586377213761475,0.49263766916247237,-0.22899272787484262,-0.11401682067117937,1.18984912512888,3.2590956281537564,3.2594048332458536,138711921
0,0,0,0,0,0,0,0,0,0,0,0,0.4984291670834025,-0.5969833728055206,0.5750616759135336,-1.176001379013226,3.258727414456297,3.258675486883579,0.8886904464591081,-0.049929541341011685,-0.13796684002480983,0.25521890583263707,3.259110577000448,3.259049994832276,138712978
0,0,0,0,0,0,0,0,0,0,0,0,1.198115443958693,0.8020315887965666,-1.3359469575818728,2.3344130795494413,3.258698303544319,3.258518523993316,1.017787506316603,-0.14401128816739178,-0.10629141405718492,1.3135099188697241,3.259171552559322,3.2590193103574885,138714035
0,0,0,0,0,0,0,0,0,0,0,0,1.0147029298189794,0.4496400653886873,1.07096330773393,0.22535189692400656,3.259097988497971,3.258939452044898,-0.38550479239282515,-0.020931925884714826,-0.11070171722194161,-0.39341391246484664,3.2590617965533486,3.259107036484126,138715092
0,0,0,0,0,0,0,0,0,0,0,0,0.28213076378473806,0.31058274633678745,0.5613177849433165,-0.2991775630924181,3.2589193891190753,3.2584658096391923,-0.6290891682015858,0.6290694986664651,-0.11235435156278033,1.1964746113389266,3.25920381059692,3.2591373275682125,138716149
0,0,0,0,0,0,0,0,0,0,0,0,0.1465085323463121,0.03839493255554826,-0.263048560982771,-1.1598302674091179,3.2588084529409946,3.258728594628405,-0.601324832597355,0.1123653665024479,-0.11732720343198816,-0.7013455988580702,3.2596007418156554,3.2594457458789043,138717206
0,0,0,0,0,0,0,0,0,0,0,0,-0.28400959777946444,-0.29783216689016423,-0.5666501959145303,-0.7266056092507372,3.259003968120094,3.2589882324919976,-0.8541196649217205,-0.21391838954906336,-0.11004239440469674,-1.2148514646114665,3.259275014314057,3.2592234801320408,138718263
0,0,0,0,0,0,0,0,0,0,0,0,1.4411620546772546,0.44796933507553754,-0.24035739187686345,-0.32257958919758667,3.2590802859163626,3.258751017898442,-1.7182212255264788,-0.20533342425029566,-0.10927174201866889,-1.4579696724378672,3.2593395303892527,3.259195156001467,138719320
0,0,0,0,0,0,0,0,0,0,0,0,2.177701565945335,0.12389289425526788,-0.115308715737905,-0.39302720940437424,3.259067697413885,3.258745117037906,-1.7875484690127932,-0.25406115699543436,-0.11468401130247251,-1.057507772148582,3.2593651007849096,3.2592789482210813,138720376
0,0,0,0,0,0,0,0,0,0,0,0,1.2567015477063115,-0.2448495203077221,-0.35525894823777054,-1.218268062861927,3.258859987123011,3.2587616394474077,-1.2445095830571153,-0.19392824100592623,-0.08652235108880414,-1.7030646685438953,3.2592167924900997,3.258758492321788,138721610
0,0,0,0,0,0,0,0,0,0,0,0,0.23951632255510358,0.22873741730897632,-0.20541485612569524,-0.3553266114385857,3.258599562478013,3.2584016869546994,-0.8632250861197812,-0.1648865657909591,-0.12993065475590881,0.03490949093216549,3.2589473198589465,3.2591184448144963,138722843
0,0,0,0,0,0,0,0,0,0,0,0,0.6742826788762425,0.12588384460018212,0.45380528614584037,-2.1696704947555654,3.258797044610625,3.258912701477134,0.10805301762259216,-0.16817491867243273,-0.10765726657596428,1.348396986531852,3.2591054629213168,3.259557862229092,138724077
0,0,0,0,0,0,0,0,0,0,0,0,2.7347691577397772,-2.7841853242141394,-0.07028278950247639,-1.9003335833947161,3.2588159273643402,3.2587018440606403,0.8733666984279989,-0.08573596307467973,-0.08221196916246046,1.101600575637886,3.259353299063837,3.2588588069509035,138725310
0,0,0,0,0,0,0,0,0,0,0,0,0.29648598390650555,-0.40278683934054843,-0.7059333212296153,-1.2395221757319181,3.258780522201123,3.2583855579359002,0.8429587773035498,-0.19954310650147278,-0.12562027282956514,2.558673710664953,3.259107036484126,3.2592699002349255,138726544
0,0,0,0,0,0,0,0,0,0,0,0,-0.07717774834367612,-0.3626582339594643,-0.862617690875255,-1.0272328170815488,3.2587167929073324,3.2586998771071283,1.5156848091703425,-0.35586083601246304,-0.11376387044952754,-0.8816196419739295,3.2593202542448347,3.259404439855151,138727777
0,0,0,0,0,0,0,0,0,0,0,0,0.341301446116143,-0.28954460496242107,-0.5588110993875384,-0.26075312623418884,3.2588674615463566,3.258641261892469,0.8802722788181636,-0.09746687382064745,-0.09551211542035525,0.023573544451420837,3.258972103473199,3.259343464296277,138729011
0,0,0,0,0,0,0,0,0,0,0,0,-0.11453570300766265,-0.3934571854421121,-0.5124496117174162,-0.822059109456433,3.2589937399618316,3.258367461963589,0.3991975425717285,-0.23020201089406142,-0.12037086729656067,-0.04264473231372026,3.259116084470282,3.2588906715977988,138730244
0,0,0,0,0,0,0,0,0,0,0,0,-0.21463475401815818,-0.8274068626650408,-0.7621067597993325,-1.2760748596280647,3.2584382722900234,3.2586357544226354,0.2967314597048116,-0.09019976737496463,-0.1221851852160913,0.1744022934916369,3.2593922447433763,3.25941073410639,138731477
0,0,0,0,0,0,0,0,0,0,0,0,-0.17334367911144247,-0.3861188752792925,-0.83821055152542,-0.9343096058737761,3.2588312696017345,3.2583355973166936,-0.023269453438455275,-0.09388898538219753,-0.12328431883863435,0.5683287940417282,3.2591333936611884,3.258834416727354,138732711
0,0,0,0,0,0,0,0,0,0,0,0,0.396017765524121,-0.45451338941018454,-0.6394015120746508,-0.5478614625765637,3.258553535765831,3.258892638551311,1.247587471912798,-0.15297351514977398,-0.14774653288680706,0.8853419048001653,3.258972103473199,3.259001214385177,138733944
0,0,0,0,0,0,0,0,0,0,0,0,1.43909281958256,-0.5841273646506505,-0.6897641765790196,-0.347429686478339,3.2584016869546994,3.258813960410828,0.6772217008139729,-0.21189282082233676,-0.11726740804522133,0.6134074346312802,3.2592431496671614,3.2593399237799554,138735178
0,0,0,0,0,0,0,0,0,0,0,0,2.639195279979143,-1.1828979114172353,0.759547359889431,-1.3359973115917814,3.2590102623713326,3.258816320755043,0.729632357315106,-0.14295267378719734,-0.11935670606573892,0.6533322636285142,3.259292323504963,3.259459514553489,138736411
0,0,0,0,0,0,0,0,0,0,0,0,0.481702587807487,0.3667569716879095,-0.65790543054407,-0.576104948056334,3.258970136519687,3.2587388227866674,0.5087049256211431,-0.23485306916869508,-0.14113442196064258,0.21482790885304318,3.2591444086008554,3.2590661238510754,138737645
0,0,0,0,0,0,0,0,0,0,0,0,2.004447579914043,0.2911775697681391,0.03236976055738456,0.03335166375060841,3.2584107349408544,3.258745903819311,0.44714203442836215,-0.5687355600280237,-0.14240507392943785,0.3797191953324312,3.2591920088758477,3.2592553447789365,138738878
0,0,0,0,0,0,0,0,0,0,0,0,1.8548163121719732,0.19048764592261863,0.0210397149371761,-0.03727848974209901,3.25893001066804,3.258969743128984,-1.1446044736629097,0.19784719918336857,-0.08381936357252164,-0.2120489969311949,3.2594174217483305,3.2591573904940354,138740111
0,0,0,0,0,0,0,0,0,0,0,0,0.09509000719666566,0.18734288064752586,0.04107825053671009,-0.15721702065670734,3.258856446606689,3.2589544008915903,-1.8118316902913678,-0.14542513435186558,-0.1202571773835632,-1.2921366086169013,3.259316713728513,3.2589032601002765,138740929
0,0,0,0,0,0,0,0,0,0,0,0,0.8545693104945791,0.195442008428813,0.1879955158228297,0.21833262662084418,3.258498461067493,3.2584831188300987,-0.5748700946414583,-0.16806516266645938,-0.12565567799278235,0.2940638773517462,3.2589815448500565,3.2590252112180247,138741747
0,0,0,0,0,0,0,0,0,0,0,0,1.3225980308768785,0.7718337383072064,0.5679542860930307,0.3337927977791783,3.258634574250528,3.2589795778965445,-0.08488387881325231,-0.05997910022486451,-0.12440626912191738,0.5422351887506471,3.2591727327314297,3.2592478703555905,138742565
0,0,0,0,0,0,0,0,0,0,0,0,0.4983536360685391,0.534174219867494,0.62858130080477,-0.14595227789309953,3.2587663601358363,3.2585787127707855,-0.9107848418694545,-0.20207024837377646,-0.14710805977679012,-1.4604083014021279,3.2594040464644487,3.2592278074297676,138743383
0,0,0,0,0,0,0,0,0,0,0,0,-0.00975412246634036,0.4660039384369777,-0.8224096205722833,-0.8075992474078234,3.25894456612403,3.2585826466778096,-1.9637402968097086,0.004526746812671043,-0.11173043390875266,-1.6373141333239236,3.2588206480527697,3.25922662725766,138744201
0,0,0,0,0,0,0,0,0,0,0,0,0.7216897990333794,-0.7425839594106626,-0.5991592167805692,-0.458672315916099,3.2588312696017345,3.2587958644385173,-1.3244288712059105,-0.2593986820457795,-0.10554869241102843,-0.051362270279201296,3.2593123864307865,3.259241576104352,138745019
0,0,0,0,0,0,0,0,0,0,0,0,0.9932324520626606,-0.2261099608075572,-1.2910768140645998,0.23159146685498555,3.2586884687767586,3.2587057779676645,0.8106130135790126,-0.10021824839332681,-0.0982985017655494,1.0164731879798397,3.259597594690036,3.259051568395086,138745837
0,0,0,0,0,0,0,0,0,0,0,0,-0.5905687440119676,-0.8637636379913851,-0.26298168456336074,-1.7236838488201913,3.2588481854019387,3.2585806797242975,1.0872937425725153,-0.14725282755527824,-0.10440431885770783,0.3639001684069834,3.2590008209944745,3.258762426228812,138746654
0,0,0,0,0,0,0,0,0,0,0,0,-0.4463332231442002,-0.08693619810774303,-0.24497973263022096,-0.4124807730294195,3.258402473736104,3.258699090325724,0.13500185430072,0.32486715613212064,-0.1003885865674718,0.39933798305249013,3.2591333936611884,3.259176273247751,138747472
0,0,0,0,0,0,0,0,0,0,0,0,-0.7034923319211401,-0.29655128676310616,-0.6149027126911536,-1.0071844467144544,3.259112150563258,3.2585496018588067,2.3157042045240646,-0.3138844745021432,-0.11712342704813802,0.2456091577540824,3.259263212592985,3.2593859504921374,138748290
0,0,0,0,0,0,0,0,0,0,0,0,-0.236652438241534,0.10579810211635853,0.27549858993275045,-0.10293618475630101,3.2588001917362437,3.258407194424533,0.2434840611796452,-0.11740509479106602,-0.11039251212984467,0.19559857792837354,3.2590138028876545,3.259009475589928,138749108
0,0,0,0,0,0,0,0,0,0,0,0,0.5613767935486785,0.8998749375194236,-0.1897193538808052,-0.2740501253664643,3.258644409018088,3.2586318205156113,0.31897337662856295,-0.1800808882809744,-0.14020916702856623,0.3390559719867673,3.2595169495960414,3.259407980371473,138749926
0,0,0,0,0,0,0,0,0,0,0,0,0.9163808246112852,-0.5788154099959624,-0.7955980772492978,-1.0605935288183126,3.2588843773465603,3.2587761949033967,0.30169093629013727,-0.11706048453575187,-0.1120687499128282,0.08177019140365022,3.2591983031270866,3.2593713950361485,138750744
0,0,0,0,0,0,0,0,0,0,0,0,0.657846421938708,-1.0106006515742123,-1.2036866430862716,-1.6966110940708032,3.258710892046796,3.258679420790603,0.9194244884758577,-0.2260718019094231,-0.12182483933268062,0.8412892271625073,3.2593658875663145,3.2590952347630537,138751562
0,0,0,0,0,0,0,0,0,0,0,0,0.5826387742327183,-0.7149887818084695,-1.5501584232042338,-1.6131131307021536,3.258778555247611,3.2587226937678686,0.771088262926133,-0.08461007888437257,-0.11792279695544207,0.8728651252824218,3.259463448460513,3.2593355964822286,138752380
0,0,0,0,0,0,0,0,0,0,0,0,0.4956652040082459,-0.5728767839523297,-0.333255819470384,-2.032280365500494,3.2589559744543997,3.259058256037027,0.3717534269992622,-0.1426348140996473,-0.10546214645649749,0.17464265521081151,3.2590472410973597,3.259232528118196,138753197
0,0,0,0,0,0,0,0,0,0,0,0,1.7208860541446271,-1.1277130636826829,-0.896697914206733,-0.11294168388148353,3.25843276482019,3.2585523555937232,0.8235614685489497,-0.1259125621214583,-0.14313048638468817,0.9877265557916827,3.259134573833295,3.2591908287037406,138754254
0,0,0,0,0,0,0,0,0,0,0,0,1.393531881991849,0.09004280448470169,0.10966985340951126,-0.5052729851332886,3.258639294938957,3.2586381147668497,0.22508006394863891,-0.16505533040229442,-0.1197965168710371,-1.3321176924845803,3.2590452741438476,3.2590417336275257,138755310
0,0,0,0,0,0,0,0,0,0,0,0,0.16843337636391834,-0.23798052525288166,-0.17904076326379337,-0.667011245132833,3.258929617277338,3.2587903569686834,-1.6743003337741296,0.14017690899096835,-0.12449635559277004,0.33246195703291376,3.2592738341419496,3.2590692709766946,138756367
0,0,0,0,0,0,0,0,0,0,0,0,-0.3225658205230022,-0.011887873636230664,-0.13642120795502757,-0.7647409039426927,3.258570058175332,3.2583001921534764,-1.3201940202944302,-0.29892107235444454,-0.09680597744059292,-0.8946593635868267,3.2592199396157193,3.259338743607848,138757423
0,0,0,0,0,0,0,0,0,0,0,0,-0.3213223125126734,-0.3615913583745191,-0.40316213407065077,-0.7510729373780414,3.258627886608587,3.2588422845414025,-1.4935758583040066,-0.14383740947692508,-0.08644839363675041,-0.8143832700709426,3.2589272569331236,3.2591967295642768,138758480
0,0,0,0,0,0,0,0,0,0,0,0,-0.06055187708757842,0.00658103306067384,-0.35156343597929907,-0.34202489161788124,3.258644015627386,3.258388311670817,-1.3541916315784013,-0.15050026780370088,-0.12386063621766999,0.3647357302589095,3.259197122954979,3.2590157698411666,138759536
0,0,0,0,0,0,0,0,0,0,0,0,1.1977122184887192,0.25048484211979416,-0.6128602281642231,-0.1944581382820771,3.258809633113102,3.2587777684662065,-0.013676621160104412,-0.10095034849051815,-0.12694481932459106,0.4381758735389558,3.259117264642389,3.259198696517789,138760593
0,0,0,0,0,0,0,0,0,0,0,0,1.6057319409527708,-0.10670565446682624,0.10120998635411099,-0.8076649436551265,3.2588788698767264,3.25885172591826,0.214076926002136,-0.3663848240834265,-0.11342555444545202,0.825825432041339,3.2586802075720076,3.259087760339708,138761649
0,0,0,0,0,0,0,0,0,0,0,0,0.46267900022017955,0.41491035400752474,0.10049558883852826,-0.65164776464078,3.258607430292061,3.2584496806203935,0.2852212411428977,-0.1972641941623919,-0.1085270534190003,-0.32151468056615357,3.2592639993743893,3.2592344950717083,138762706
0,0,0,0,0,0,0,0,0,0,0,0,-0.4663796265577825,1.3707435453824452,-1.2047889238344338,2.3360129995361567,3.2588348101180564,3.258561010189177,-0.7937459938223353,-0.1891894566046544,-0.1177099725854364,-0.06124935880295739,3.2593234013704535,3.259267539890711,138763762
0,0,0,0,0,0,0,0,0,0,0,0,-0.09910259236128238,0.19753720730986682,-0.5143134968654509,-0.7087260018260481,3.2586762736649835,3.2588289092575202,-0.09830518940749042,-0.2608318043746715,-0.11842869739874569,0.6094609391046689,3.259067697413885,3.259046060925252,138764819
0,0,0,0,0,0,0,0,0,0,0,0,0.6916807760811776,-0.3881212339545767,-0.06128279701266253,-0.9875125512495697,3.2593293022309897,3.258618445231729,0.3474218186642907,0.27559143013852,-0.13140272276433979,0.27755759686918224,3.259245510011376,3.259029145125049,138765875
0,0,0,0,0,0,0,0,0,0,0,0,0.49859321100630893,-0.12421232750562756,-0.32637856321079295,-0.7322629609421444,3.2587093184839864,3.258927650323826,1.0202056789643381,-0.9922529092136513,0.026688018642427758,-0.6277272495898305,3.2592242669134457,3.2594189953111403,138766932
0,0,0,0,0,0,0,0,0,0,0,0,0.9615153266805799,0.2956787461851532,-0.17381102726590958,-0.47434460810954665,3.2589662026126627,3.2588961790676327,0.10297513043583993,-0.018566074200400615,-0.1218740131704823,0.1880958304519451,3.259418601920438,3.258968956347579,138767988
0,0,0,0,0,0,0,0,0,0,0,0,-0.6603885126577034,-0.6384613082958828,-0.49544687216840644,-0.9424063733108488,3.2592222999599336,3.258680994353413,-0.20598684620700433,-0.05624739602177096,-0.11772295447861605,0.12044521813931681,3.2591967295642768,3.259267539890711,138769045
0,0,0,0,0,0,0,0,0,0,0,0,-0.5394916819920161,-0.3164568563052244,-0.6488979636309103,-0.3692805730438915,3.2588513325275574,3.2588446448856168,0.09424107006085754,-0.06074660548527306,-0.12131972567078181,-0.8063156135458486,3.259208531285349,3.2592777680489737,138770101
0,0,0,0,0,0,0,0,0,0,0,0,0.8245099335324685,-0.21556000895023453,-0.10441612057878023,0.002414238740711062,3.2590279649529412,3.2585999558687155,-0.4198879265651615,-0.1611072613128735,-0.1496812283612762,-0.23217132475034294,3.259322614589049,3.259223086741338,138771329
0,0,0,0,0,0,0,0,0,0,0,0,0.9600896787750338,-0.10913326849141937,-0.09488190351508898,-0.4218599941563599,3.258607823682764,3.258721513595761,0.8506570399590778,-0.1569160767693611,-0.12952585572312542,0.8472723063555129,3.2594245027809743,3.259138901131022,138772556
0,0,0,0,0,0,0,0,0,0,0,0,1.0092635165767094,0.4061196453713948,-1.101323628583387,0.844677501282394,3.2585421274354607,3.258642048673874,1.1277996096372138,-0.09923713198150777,-0.08736224023845675,1.4349681180677554,3.2589713166917935,3.259292716895666,138773784
0,0,0,0,0,0,0,0,0,0,0,0,0.6032044533734862,-0.7272767337890546,0.5277477893528687,-1.0907803643680052,3.258959908361424,3.2589091609608127,0.36438836626867843,-0.09450424844077211,-0.11839565257974298,0.19085507283867273,3.2595102619541003,3.259430010250808,138775011
0,0,0,0,0,0,0,0,0,0,0,0,0.5046651964980599,0.13479296383773848,0.24215597416829754,-0.31712168659230305,3.258754558414764,3.2585362265749245,0.317612638188915,-0.17514265479357893,-0.12099163782496902,0.9553249305874025,3.25926085224877,3.2590657304603727,138776238
0,0,0,0,0,0,0,0,0,0,0,0,0.30483255443961077,0.8340012710095966,0.26214494253932746,0.3308758057207829,3.258848578792641,3.2585692713939274,-0.21630351737779585,0.4060205109143866,-0.10424302866971834,0.7743856637937622,3.259061009771944,3.258957154626507,138777466
0,0,0,0,0,0,0,0,0,0,0,0,1.1998200058722504,0.7021131041184787,0.47289850388747495,0.018946483009634377,3.2589968870874504,3.258639294938957,-2.3952025646212776,0.34191434883050303,-0.11764703007305026,-0.42037848477107104,3.259311206258679,3.2593875240549472,138778693
0,0,0,0,0,0,0,0,0,0,0,0,1.6386634634332016,-0.057745427816561196,-0.47037883643851713,-0.8493128239289313,3.2588281224761153,3.258929617277338,-0.9574862191064618,-0.1951009386898206,-0.12735748617142273,-0.7563321776786062,3.2590122293248447,3.2589386652634937,138779920
0,0,0,0,0,0,0,0,0,0,0,0,-0.6570321031847123,0.04911168207069421,0.01841186504505456,-0.19318040528063837,3.2586904357302706,3.2587663601358363,-1.0507921994676825,-0.1486332355300469,-0.1341596048068529,0.011656166512509168,3.258992559789724,3.2588033388618634,138781148
0,0,0,0,0,0,0,0,0,0,0,0,1.1104947460287506,0.38434940389983696,0.3565720864024265,-0.05461128409043361,3.2587789486383136,3.258319861688597,-0.25779876205906416,-0.25292897855388863,-0.1246387630270437,-0.1481493649660784,3.259246690183483,3.2591322134890808,138782375
0,0,0,0,0,0,0,0,0,0,0,0,0.3181936762563796,1.0203303838170033,-0.18851636511282505,0.25931882373318954,3.25857792598938,3.2588615606858204,-0.6138692753159135,-0.2184836886505709,-0.12103019011380554,-0.4626687720619168,3.2590358327669895,3.2593155335564052,138783603
0,0,0,0,0,0,0,0,0,0,0,0,1.7412455965573306,0.3469084437976412,1.0260872633561209,0.2388003514767112,3.258638901548254,3.258529145542281,-0.8437939457647735,-0.13975952145570772,-0.11320997634052948,-0.9346880477294978,3.259411914278497,3.259054322130003,138784830
0,0,0,0,0,0,0,0,0,0,0,0,1.7025922063102967,-0.036078254709035716,0.5860140664594253,-0.7074624308898962,3.258732921926131,3.2584768245788602,0.05708256448299461,-0.11818322160043973,-0.12025206330443182,1.1286072407492687,3.2591939758293598,3.259440238409071,138786057
0,0,0,0,0,0,0,0,0,0,0,0,2.3738921968808406,1.2967880602822375,0.024684086404333876,0.9636738614647223,3.258555502719343,3.2588513325275574,1.637607602787924,-0.14730318156518715,-0.12904788601969314,2.2163195510291516,3.259267539890711,3.259149522679987,138787285
0,0,0,0,0,0,0,0,0,0,0,0,3.2119851245862394,0.42200987601397943,0.7331701199019098,0.8110473169144768,3.258927650323826,3.2587938974850053,1.2572955676669557,-0.1951044792061423,-0.1225549724763599,1.1859455091888318,3.259286422644427,3.2593568395801586,138788512
0,0,0,0,0,0,0,0,0,0,0,0,1.6955446118765605,0.08279890809046127,-0.6247296124374404,-0.5332780758473964,3.2586436222366837,3.258782489154635,-0.4027400258469612,0.11966669793924067,-0.144575803825355,-1.9892847286802207,3.259114510907472,3.259265572937199,138789739
0,0,0,0,0,0,0,0,0,0,0,0,0.48814318038739923,-1.0745313614048195,-1.9746006339312354,-2.023289027606133,3.258356840414624,3.2586058567292517,-0.18984917281260164,-0.1989337443034344,-0.1305231011537434,-0.7789238189368032,3.2590633701161584,3.258900899756062,138790812
0,0,0,0,0,0,0,0,0,0,0,0,-0.780473778304312,-1.1212948943728083,-2.117548980420706,-2.48653490382849,3.2588942121141207,3.258282489571868,0.21586685369811698,-0.19687434397630024,-0.14122844233851936,1.0816611744953601,3.259264786155794,3.259134573833295,138791884
0,0,0,0,0,0,0,0,0,0,0,0,-1.2744816272832904,-1.0533653680521688,-1.8555610007716419,-2.195677947482818,3.2586778472277933,3.2588198612713644,0.8195512437285475,-0.16947232120899214,-0.1006879568920084,0.8064041264538916,3.2588076661595897,3.2590271781715368,138792956
0,0,0,0,0,0,0,0,0,0,0,0,-1.0888653384286568,-0.8629571870514376,-1.3845114331855097,-2.0431682399711892,3.259042127018228,3.258580286333595,0.46588788817976573,-0.13975558754868359,-0.13817061640866,1.525814226366785,3.2593753289431726,3.259361560268588,138794028
0,0,0,0,0,0,0,0,0,0,0,0,0.14015527250233561,-1.1402807164526838,-1.0428917339911143,-0.770561119384899,3.2591802071547753,3.2589563678451023,0.7325100103032601,-0.10094090711366023,-0.09511715115513218,0.4119520559253759,3.259642441230111,3.2592199396157193,138795101
0,0,0,0,0,0,0,0,0,0,0,0,0.03365142746584743,-0.36253470927890646,-0.025117209567691035,-0.25160679240307715,3.2584473202761792,3.258474857625348,-0.11815057017213942,-0.10419896891104803,-0.10234649209338333,-0.0854531151596445,3.258883983955858,3.2589091609608127,138796173
0,0,0,0,0,0,0,0,0,0,0,0,-1.2865689500056445,0.8728686657987433,-1.4424858143908756,-0.8380783722494092,3.258880050048834,3.2589736770360083,0.7106780064914234,-0.19564263768704387,-0.08311912812222577,0.03753222674515566,3.25946462863262,3.259406406808663,138797245
0,0,0,0,0,0,0,0,0,0,0,0,0.9343481581626127,-0.3479548630660609,-0.413310040630107,-0.7535111729515996,3.258679420790603,3.25811333156983,0.6608444524818006,-0.37107404125619425,-0.0982111690296136,-0.4849146228926924,3.2592451166206735,3.2589166353841583,138798317
0,0,0,0,0,0,0,0,0,0,0,0,1.1191084288487945,-0.523430719784584,-0.7941173546454137,-0.6049168831010917,3.2588592003416057,3.25894299256122,-0.703552127307907,-0.14441766076298485,-0.1359282894049036,0.6132370964571352,3.259025997999429,3.258767933698646,138799390
0,0,0,0,0,0,0,0,0,0,0,0,2.0983621356918976,-0.08648812609769416,-0.16233503369510574,-0.42177895567166274,3.2587148259538203,3.2587761949033967,-0.9421014955164784,0.8590901564467139,0.10917378773376796,0.18241920261611969,3.2592156123179925,3.2591908287037406,138800462
0,0,0,0,0,0,0,0,0,0,0,0,1.6477232513097824,0.31158156533021514,-0.4145622032358889,-0.541238730101434,3.2586971233722117,3.258413488675772,-0.8998308777607533,0.010439015679242094,-0.12849635225490955,-0.7905571687885723,3.259156210321928,3.2589957069153437,138801534
0,0,0,0,0,0,0,0,0,0,0,0,-0.4247250586420367,0.2629883722053018,-0.41207007313609995,-0.5190369390293287,3.258880443439536,3.258910734523622,0.015633346513908686,-0.26831094840895514,-0.12331421653201777,1.1287402068066843,3.2590468477066574,3.2591566037126305,138802606
0,0,0,0,0,0,0,0,0,0,0,0,-0.6521127524510326,0.5447351866644843,-0.11207307721055475,-0.3685366712256278,3.2586247394829675,3.2586908291209733,-0.5311620272591147,-0.15965564962096807,-0.13258761556000895,-0.8725956526512686,3.2592754077047594,3.2591263126285446,138803679
0,0,0,0,0,0,0,0,0,0,0,0,-0.07331268469246442,-0.07344447057777291,0.34753944248431234,-0.1519739093749415,3.2589540075008876,3.25852403146315,-0.3821633317665257,-0.07649678903779852,-0.11556205935025922,0.3348234814195014,3.259189648531633,3.2590031813386893,138804751
0,0,0,0,0,0,0,0,0,0,0,0,-0.03615142537968461,0.3234859613759471,0.5778575036355857,-0.0556852407080222,3.2588234017876863,3.2587938974850053,0.04590082715759601,-0.09223595765065641,-0.11770603867841227,0.02759085030446652,3.2596027087691675,3.2591082166562337,138805823
0,0,0,0,0,0,0,0,0,0,0,0,1.990896056997306,1.3473647293287192,1.4154044050460344,-0.05724582162449617,3.2586821745255197,3.2584217498805224,-0.5606360388560341,-0.16083936224453,-0.10432524732652275,-0.7045887118087664,3.2589123080864315,3.2593084525237623,138806895
0,0,0,0,0,0,0,0,0,0,0,0,3.000642657356579,-0.494763159127612,0.7875390753196567,-0.5352454227501658,3.2589736770360083,3.258651883441434,-0.4925625315383114,-0.1452500754892916,-0.11850304824150183,-1.1136387245224386,3.2590232442645126,3.2590393732833114,138807703
0,0,0,0,0,0,0,0,0,0,0,0,0.15179806373096272,-0.4915259470374521,-1.275822302797115,-1.430255690843545,3.2586632917718044,3.258675486883579,-1.209412838150601,-0.14994794725751248,-0.12909666646679238,-1.07936770670029,3.259326155105371,3.259357626361564,138808510
0,0,0,0,0,0,0,0,0,0,0,0,-0.01077811846472245,-0.7226764229150323,-1.0263173969170327,-1.574969181414745,3.2588938187234184,3.258708138311879,-0.9257325083890566,0.5781501863181814,-0.10867182119748844,1.3663946111672651,3.2588001917362437,3.259056289083515,138809317
0,0,0,0,0,0,0,0,0,0,0,0,-0.40201579356381817,-0.2806295848643285,-0.7029301766073914,-0.9183509252489717,3.258839530806485,3.2588001917362437,2.8936942808263635,-0.40918140520827834,-0.1079924354544205,1.3966294403826522,3.2595456671173175,3.259462268288406,138810125
0,0,0,0,0,0,0,0,0,0,0,0,0.3089690576754877,-0.06541575973221775,-0.6069676288327728,-0.5624114110960258,3.2585704515660345,3.2583942125313534,1.2017228366998238,-0.10878551111048591,-0.11148889201747084,0.1108630074099311,3.258996493696748,3.2591337870518906,138810932
0,0,0,0,0,0,0,0,0,0,0,0,0.42960900421249915,-0.59552113956465,-0.8791814064003713,-1.2787058566458052,3.2590452741438476,3.2588977526304426,0.08675169786831113,-0.18692627989367006,-0.10235121278181228,0.08963131780997725,3.258915455212051,3.259088153730411,138811739
0,0,0,0,0,0,0,0,0,0,0,0,-1.6001776576253959,-0.5295353567046353,-1.2377495572268435,-1.091417657305915,3.258815533973638,3.258612937761895,0.3379906699646318,-0.1308547295158779,-0.1015770198794627,0.23360995454906874,3.2593088459144646,3.2595409464288885,138812547
0,0,0,0,0,0,0,0,0,0,0,0,-0.26839946131699816,-0.05864196522736134,0.3928820482351837,-0.13365016384722755,3.258839530806485,3.2587718676056703,0.0013111712111438763,-0.1555045909291018,-0.07587641190009259,-0.015584172676107011,3.259087760339708,3.258942205779815,138813354
0,0,0,0,0,0,0,0,0,0,0,0,1.262480063734062,0.6195030235651758,0.5676470479544459,0.8756172866365058,3.2589764307709252,3.2588698218905714,0.19099393975662465,-0.202531302277005,-0.1350777787062858,0.6443904929626575,3.2591156910795798,3.2589437793426246,138814161
0,0,0,0,0,0,0,0,0,0,0,0,2.589748429029992,1.2163931627742246,0.9705786550734823,1.7937750570505926,3.2584123085036643,3.258314747609466,0.17671582421253015,-0.10952901953804725,-0.09428985050795681,0.17383384392664955,3.2592097114574563,3.2593489717661104,138814969
0,0,0,0,0,0,0,0,0,0,0,0,1.2375866934760442,0.25454620773151015,-0.004698265158923288,-1.1768566104002727,3.258968562956877,3.259073598274421,-0.4040602450442606,-0.21437236241964847,-0.13895346390646265,-0.7835784177277585,3.259193582438657,3.2590177367946787,138815776
0,0,0,0,0,0,0,0,0,0,0,0,1.1882936582915375,-0.8531106177700302,-1.4049575215527441,-1.9266026409390735,3.258928043714528,3.2588112066759116,0.036032621387555766,-0.08169898768651337,-0.13971860882265674,0.14708288277183565,3.2595145892518267,3.2592156123179925,138816583
0,0,0,0,0,0,0,0,0,0,0,0,-0.19209504033267977,-0.6382772014471532,-1.052673787197326,-1.4846671324571528,3.2587223003771664,3.2585940550081793,-0.4809287882958398,0.030862680776438806,-0.1016442896895754,2.782575962850566,3.259217185880802,3.2592270206483622,138817391
0,0,0,0,0,0,0,0,0,0,0,0,0.0607009721637931,-0.3561000175595304,-1.352479201850796,-1.464130957619066,3.2588788698767264,3.258912701477134,-0.4391817735650269,-0.06465258176953576,-0.1402642417269041,0.36522707524622383,3.2593289088402875,3.2586947630279974,138818198
0,0,0,0,0,0,0,0,0,0,0,0,0.4827848056298263,-0.40673530182067175,-0.695393204139853,-1.2810221411016154,3.2588151405829358,3.258557863063557,-0.8822372653767186,-0.054929143777983636,-0.13324693837725382,-0.48093075524935186,3.259355659408052,3.259187681578121,138819005
0,0,0,0,0,0,0,0,0,0,0,0,0.5417855431777886,0.24461230571416684,-0.21138770716043795,-0.5635884360776466,3.2588005851269464,3.2586912225116755,-0.760971040841465,-0.1435451201850319,-0.11400934624783352,-0.11448849612337304,3.2593100260865717,3.2592262338669578,138819812
0,0,0,0,0,0,0,0,0,0,0,0,0.31257645041661863,0.3123592987488864,-0.2552716201867604,-0.4504370749517768,3.2586581776926726,3.2588737557975955,-0.35052409774352283,-0.0979436633519725,-0.13506637037591582,-0.4302655732948271,3.259200663471301,3.2589473198589465,138821035
0,0,0,0,0,0,0,0,0,0,0,0,0.14876462802465296,0.43343236844925503,-0.5371714636291818,-0.37744146316545757,3.258810026503804,3.258631033734206,-1.1337740342347662,-0.2307826555708236,-0.10495388566897935,-0.8658214647557098,3.258968956347579,3.2588922451606086,138822257
0,0,0,0,0,0,0,0,0,0,0,0,0.37832187155745883,0.7926716438140444,-0.2840705733383385,0.37428371599718524,3.2590539287393003,3.2585102627885654,-0.4532848302465475,-0.21302421248247772,-0.14102938664309816,0.7744572609016014,3.2592663597186036,3.259492952763194,138823480
0,0,0,0,0,0,0,0,0,0,0,0,1.714732636777477,-0.10828433135561125,0.9884881601915549,-0.7749859780056451,3.2587411831308817,3.2585641573147957,1.5337556044764047,-0.05092442642741518,-0.13623395398067878,1.4998413920213451,3.2596628975466366,3.259145588772963,138824702
0,0,0,0,0,0,0,0,0,0,0,0,0.8339088241945295,0.7155792612527919,0.23754661530811969,-0.4397856282932315,3.258911521305027,3.2584351251644046,0.6032087806712126,-0.04062703140104191,-0.12032366041227106,0.3978958127374425,3.2586888621674612,3.259297044193392,138825924
0,0,0,0,0,0,0,0,0,0,0,0,0.7287263785274479,0.512679745278328,-0.3648726302233493,-1.0343779724094833,3.2587482641635255,3.2586251328736697,1.1067425855091315,0.14399555253929525,-0.1293555175489804,1.906116426720193,3.259407193590068,3.2593733619896605,138827147
0,0,0,0,0,0,0,0,0,0,0,0,0.694275187763594,-0.2926071515807094,-0.6761941642992692,-1.0288091336261194,3.258810026503804,3.258708531702582,0.2290981565830894,-0.4457246477275667,-0.1021694662772973,-0.17428230932740083,3.259447319441714,3.259235675243816,138828369
0,0,0,0,0,0,0,0,0,0,0,0,0.3232023266795071,-1.2084785352323693,-1.0811544872706518,-1.0373059794075463,3.2591184448144963,3.258618051841027,0.5715121116056575,-0.17711590255688459,-0.10084216604735445,0.2754470557507343,3.2590574692556222,3.2589083741794074,138829591
0,0,0,0,0,0,0,0,0,0,0,0,-1.0722249117165699,-0.8083388219283606,-0.78595685791455,-1.1918152918595424,3.258684928260437,3.2587199400329516,-0.39969675537309113,-0.05064000494957029,-0.12073711404050755,0.45095241677193837,3.2592557381696388,3.2590861867768988,138830814
0,0,0,0,0,0,0,0,0,0,0,0,-0.005195117616071416,-0.5609169198175573,-0.4672092875491723,-0.454527158084769,3.2587132523910105,3.258144802826023,1.3395240592389175,-0.18257616550638264,-0.1269570144363659,1.422015729190794,3.2589673827847694,3.258941025607708,138832036
0,0,0,0,0,0,0,0,0,0,0,0,0.8231346396368312,-0.6351521057071811,-0.4214410330582896,-1.233512739361851,3.258999247431665,3.2588371704622707,0.7188164733429518,-0.2361650271612438,-0.11132091418754031,0.07718364920421232,3.2591699789965123,3.2594764303536925,138833259
0,0,0,0,0,0,0,0,0,0,0,0,1.0638417558481403,-0.13268242271929057,-0.3653494197546744,-0.24276218924071657,3.2587348888796432,3.258686108432544,-0.5210786367748542,-0.08850464683826527,-0.13299556171841165,-0.1326273480209527,3.259372181817553,3.2591927956572526,138834481
0,0,0,0,0,0,0,0,0,0,0,0,2.5250667363484784,-0.7405709791864131,1.2544379776046248,-0.8306790865277155,3.258776588294099,3.2584516475739056,0.7252220541503493,-0.21007338882367477,-0.12508408130217566,0.3941353910130728,3.2593163203378106,3.2589142750399436,138835703
0,0,0,0,0,0,0,0,0,0,0,0,0.05987091778170082,0.8789347504299581,-1.1425490072427997,-0.39557913489093005,3.2590759586186357,3.258902866709574,0.08561637230114606,-0.003921318521656814,-0.12079651603657199,0.5246195464872774,3.259025604608727,3.2593643140035047,138836926
0,0,0,0,0,0,0,0,0,0,0,0,0.38494421064188605,-0.1615152074712762,-0.9965975161311049,-0.881994936704032,3.2587101052653913,3.2586857150418416,1.3841506939113966,-0.19733028380039735,-0.12283939395420478,0.8143348830145458,3.2590732048837188,3.2588942121141207,138838148
0,0,0,0,0,0,0,0,0,0,0,0,-0.5832414487888156,-0.09041691904269684,-0.533047548895782,-0.957144755976767,3.259083039651279,3.258671552976555,1.1156725544539159,-0.40855394703792897,-0.14711081351170702,-0.328735760299654,3.2591310333169736,3.2590566824742178,138839370
0,0,0,0,0,0,0,0,0,0,0,0,-0.7093837510804833,-0.18911943305962478,-0.10823279717359507,-0.5606112552417821,3.2585476349052946,3.2587018440606403,1.05732327190915,0.026313510693730197,-0.10145860927803625,1.6059652216393019,3.2588532994810695,3.2591758798570485,138840405
0,0,0,0,0,0,0,0,0,0,0,0,-0.2286725078430781,0.4094390761183591,0.17529096308838882,-0.0230940011851789,3.2585857938034284,3.2582714746322003,1.2020949843043072,-0.28533768479081206,-0.12902900326597727,1.4790003393888878,3.259250230699805,3.258994526743236,138841439
0,0,0,0,0,0,0,0,0,0,0,0,1.6286516700567804,0.7566767879339202,0.3871294959937925,0.5854401094246041,3.258959514970721,3.259088153730411,-0.3673431238345055,-0.15960018153192776,-0.11561556048578744,-0.07142480271158251,3.2589091609608127,3.2593123864307865,138842473
0,0,0,0,0,0,0,0,0,0,0,0,1.941348104637635,0.49136977092859396,0.31026803377485673,0.37687419377257747,3.2587368558331553,3.259029145125049,-0.9253953725570884,-0.214528931919209,-0.10137560383982704,-0.9845782500002682,3.25890876757011,3.259140081303129,138843508
0,0,0,0,0,0,0,0,0,0,0,0,2.450929504743755,0.1707248772054764,-0.6190344952386015,-0.39872586711953484,3.258828515866818,3.2588167141457456,-1.8717785324786345,-0.09196097754966945,-0.14119815125443355,-2.5868676289162194,3.2594410251904753,3.25899846065026,138844542
0,0,0,0,0,0,0,0,0,0,0,0,0.520396103906167,0.12451759869070037,-0.5810955025071505,-0.9628878668413002,3.2588721822347857,3.2588045190339705,-1.3887266145618693,-0.09644720511999191,-0.13785118315830028,-0.5159641642527776,3.2591687988244056,3.259208137894647,138845576
0,0,0,0,0,0,0,0,0,0,0,0,-0.5272375616118385,0.049885874973043795,-0.30472515877785195,-1.496468853529555,3.2588796566581317,3.2587852428895525,-0.5976277467760738,-0.10403335142533199,-0.1243980079171667,-1.1260395796346163,3.2595688771687596,3.259028751734346,138846611
0,0,0,0,0,0,0,0,0,0,0,0,2.212573291370069,-0.42478328046599395,0.23568784423921635,-0.5649121957912678,3.258797438001327,3.2582820961811656,0.10733901349771183,-0.30846158366937443,-0.11568912454713876,-0.16601520371618314,3.2596235584763953,3.2593285154495852,138847645
0,0,0,0,0,0,0,0,0,0,0,0,0.7727841702442372,-0.058659667808969945,0.15026934746138423,0.15273315343059937,3.2587073515304743,3.2587341020982388,-0.28299622333004754,-0.21384246514349758,-0.09949637645439821,0.2960111613286926,3.258736069051751,3.2588151405829358,138848679
0,0,0,0,0,0,0,0,0,0,0,0,1.741213731910435,0.5874652847606282,0.3733478395161437,-0.037637655453402453,3.25857949955219,3.2584260771782487,-1.5459231789020513,0.2912153352755708,-0.12010650874453886,-0.16556949205034877,3.25907989252566,3.259269113453521,138849714
0,0,0,0,0,0,0,0,0,0,0,0,0.06930206648135977,-0.0011750580281088387,-0.35757365913077105,-0.4745047181254289,3.25888752447218,3.258655423957756,1.0496828376868768,-0.22144159334201732,-0.08187365315838492,0.34096470367487713,3.258949680203161,3.258759279103193,138850748
0,0,0,0,0,0,0,0,0,0,0,0,-0.2684745989411591,-0.675209113980426,-1.4570692011200428,-1.0201309347308796,3.2586806009627103,3.258934337965767,0.32665551026529194,-0.19729684559069222,-0.1257776291105305,0.697944342845004,3.2591900419223356,3.259231347946089,138851782
0,0,0,0,0,0,0,0,0,0,0,0,-0.8295264517696441,-0.49542444889836895,-1.0402064490564404,-1.0683295569812723,3.258957548017209,3.258846611839129,0.981644342141669,-0.1770808907843698,-0.11313011802793956,0.9785684202394985,3.259411127497092,3.2595169495960414,138852817
0,0,0,0,0,0,0,0,0,0,0,0,-1.259904141414659,-0.5228528288427386,-1.1913982977149842,-0.850088197003388,3.2589673827847694,3.258881623611644,0.6486784516189636,-0.08238702802503442,-0.128221765544625,0.7007291556273885,3.2593253683239656,3.2588442514949145,138853851
0,0,0,0,0,0,0,0,0,0,0,0,-0.5169917007674815,-1.2823970416065502,-0.5581710527147117,-1.391476415571739,3.2586396883296596,3.258979184505842,0.5848323207893754,-0.1515006603599382,-0.10689054809696055,0.9066404708195294,3.2592411827136494,3.2593477915940037,138854885
0,0,0,0,0,0,0,0,0,0,0,0,-0.7098798167562266,-0.003868997558235831,-0.37868969186421536,-1.5212119485392508,3.258813567020126,3.2586711595858526,0.2396335529844228,-0.03484182773135039,-0.11097945105784549,0.8166385789678786,3.2590409468461212,3.2591259192378423,138855919
0,0,0,0,0,0,0,0,0,0,0,0,1.1488464056070335,-1.8432584933350673,0.5479853806478239,-2.0639062242396142,3.258580286333595,3.2586538503949463,0.5650514560999221,-0.1968881126508847,-0.14002269983562227,0.509549928849927,3.2592443298392686,3.2588548730438793,138856771
0,0,0,0,0,0,0,0,0,0,0,0,1.322089376698658,-0.4962926621785953,-0.49081863055451275,-0.9481018839003901,3.2585936616174767,3.258345825474956,-0.7007747889488684,-0.27310952819699386,-0.12126779809806323,-0.60208525682512,3.259185714624609,3.258738429395965,138857622
0,0,0,0,0,0,0,0,0,0,0,0,0.5816434957556124,0.05392363714261497,-0.5301687157355208,-1.0332851330381791,3.2591003488421855,3.258736069051751,0.19639126019373657,-0.028917757143706934,-0.12324930706611956,0.80475267228516,3.2588741491882978,3.2590893339025175,138858474
0,0,0,0,0,0,0,0,0,0,0,0,0.32322750368446157,0.41958658928711284,-0.2205190921448579,-0.5342151325005451,3.25880609259678,3.258459908778656,1.2061122901573527,-0.058658094246160294,-0.13467219289209756,0.9601183962963099,3.2595161628146365,3.259053535348598,138859325
0,0,0,0,0,0,0,0,0,0,0,0,0.7349148076671133,0.10556364125772014,-0.8075618752910941,-1.1246257334501424,3.258792717312898,3.2586743067114714,-0.5805750466078575,-0.042618768527360976,-0.12297196662091811,-0.9284929309478915,3.2592702936256277,3.259293110286368,138860177
0,0,0,0,0,0,0,0,0,0,0,0,0.5700463378484653,-0.06713566388316916,-0.31519879283890634,-0.6357307834304312,3.2591888617502285,3.258832449773842,-0.9199327492633759,-0.23961703057492142,-0.1237382917092194,-1.2134915129532233,3.25928366890951,3.2589520405473755,138861028
0,0,0,0,0,0,0,0,0,0,0,0,0.972738370029732,-0.1765144081728945,-0.5082375774666759,-0.9957934255353719,3.2587462972100134,3.2586924026837827,-1.1733754960746166,-0.1874384745882123,-0.13594481181440493,-1.3083183417699742,3.2595267843636018,3.259347398203301,138861880
0,0,0,0,0,0,0,0,0,0,0,0,0.41744929760090077,0.21478935656420667,-0.1451855594140958,-0.5824566343375008,3.2588108132852094,3.258509869397863,-0.8567105360878153,-0.14378154799718235,-0.12266433509163081,-0.1182292483126221,3.2593477915940037,3.2589563678451023,138862731
0,0,0,0,0,0,0,0,0,0,0,0,0.49705977404830143,0.290048931842915,0.329183045528298,0.2122724428501657,3.2585641573147957,3.2582144329803504,0.09287679110488785,-0.13383033678893289,-0.12644324617901398,-0.30248715907182205,3.258955581063697,3.2589874457105927,138863582
0,0,0,0,0,0,0,0,0,0,0,0,0.1489475547012752,2.140734248248845,-1.6155631679967841,0.42670617421939067,3.258603496385037,3.2581766674729185,-1.2089360486192762,-0.12075521001281858,-0.12679415068556676,-0.5158292312418499,3.259288389597939,3.2593328427473116,138864434
0,0,0,0,0,0,0,0,0,0,0,0,2.5238566665478546,-0.98207156444449,0.4504555643147903,-1.3435039929752342,3.258902473318871,3.258787603233767,0.46138435141853706,-0.19901635635094123,-0.12457424695184789,0.7031532291356598,3.2587883900151713,3.259096021544459,138865285
0,0,0,0,0,0,0,0,0,0,0,0,0.5558952875012502,-0.14598571610280467,-0.6775438877992496,-0.823546519702258,3.2587152193445226,3.258570058175332,1.610012425185731,-0.1624011233331112,-0.12675323805251573,1.9555908150185124,3.2591778468105606,3.2594134878413064,138866137
0,0,0,0,0,0,0,0,0,0,0,0,1.6696099364292545,-0.10741257755906314,-0.5768236728696433,-0.39834427813819384,3.258583433459214,3.2584713171090263,1.465503497779786,0.39502720773544403,-0.13597510289849077,2.937250892788278,3.259291536723558,3.2592073511132416,138866988
0,0,0,0,0,0,0,0,0,0,0,0,0.610330725947705,-0.7971145984071014,-0.5566053577191064,-0.7344541471545871,3.2590027879479866,3.258780522201123,0.7470890697347008,-0.3355555815166928,-0.15441961937184565,-0.5369008108259213,3.2592639993743893,3.2589532207194827,138867840
0,0,0,0,0,0,0,0,0,0,0,0,0.21969375845119457,-0.5637241558699793,-0.5397430586508581,-1.2925457349474114,3.2589142750399436,3.2588828037837505,-0.1341655056673891,-0.14570562192268632,-0.14821191408776213,-0.3665945013278128,3.259337170045038,3.259176666638454,138868691
0,0,0,0,0,0,0,0,0,0,0,0,1.2179934761516422,-0.5389448689156615,-0.19140070574292012,-0.4370311065949328,3.2588843773465603,3.258528358760876,0.1238818793156003,-0.09033352021378518,-0.11888149009722353,0.24146399992275236,3.259318680682025,3.259317107119215,138869542
0,0,0,0,0,0,0,0,0,0,0,0,1.846344250004798,0.03452986890433656,0.31278062019117114,0.55357900304544,3.2589544008915903,3.2590842198233867,0.68159620542481,-0.13106361997885943,-0.14226463344867626,0.06130404011059286,3.2592112850202657,3.2589339445750642,138870759
0,0,0,0,0,0,0,0,0,0,0,0,2.438596706223095,0.022060957200641298,0.4012951017969968,0.3579855391961979,3.258741969912287,3.25844259958775,0.023676219424750736,-0.15412733007995247,-0.14099870216830995,-0.3454945976131675,3.258992166399022,3.259271080407033,138871975
0,0,0,0,0,0,0,0,0,0,0,0,0.7074522027316336,0.03378203317904868,-0.07068522819104531,-0.6741367309256471,3.2587038110141524,3.258893425332716,-0.6337941210024501,-0.1919132938281648,-0.1400581049988395,-0.6506249488145052,3.259109396828341,3.259311993040084,138873191
0,0,0,0,0,0,0,0,0,0,0,0,1.3321538844292025,-1.340197150730747,-0.17085823665359456,-2.055911738385169,3.258937091700684,3.258959121580019,-0.4204099560272641,-0.12074576863596065,-0.15764896364795727,-0.6947244399457502,3.2594315838136176,3.2588808368302384,138874407
0,0,0,0,0,0,0,0,0,0,0,0,-0.19158677954516165,-0.4385515616597606,-1.483485386787103,-1.6257712633337096,3.2589520405473755,3.2585551093286407,-0.05971159454722339,-0.09853925687542639,-0.1328653493959128,-0.1573271700533831,3.259003574729392,3.259412307669199,138875623
0,0,0,0,0,0,0,0,0,0,0,0,-0.17737318007626296,-0.52819625475362,-1.1316882767305703,-1.4292659198362732,3.2590732048837188,3.2587246607213807,0.5964589829992035,0.018695499741494623,-0.13544638579444715,0.8169580122182383,3.259525210800792,3.2590661238510754,138876840
0,0,0,0,0,0,0,0,0,0,0,0,-0.8931298605358434,-0.3272164854069335,-1.0127639070467838,-1.3077093729626386,3.2589016865374667,3.258732921926131,0.22808950282210144,-0.004686463437850885,-0.1266466291721617,3.1072059043891316,3.259429223469403,3.25934071056136,138878056
0,0,0,0,0,0,0,0,0,0,0,0,-0.3833336691062056,-0.2680859289271747,-0.6418129970804449,-0.9423937848083715,3.2590043615107964,3.2584248970061416,-0.16116981043455725,-0.09651329475799736,-0.09763091774355384,0.2602267694743597,3.2589201759004798,3.25894299256122,138879272
0,0,0,0,0,0,0,0,0,0,0,0,0.3185752652377206,0.06756013245107323,-0.326364401145506,-0.9844145994680642,3.258578319380083,3.258631033734206,-0.9561124987736342,-0.13494205891395317,-0.13630515769781562,-1.844707351292056,3.2591652583080837,3.2590739916651237,138880488
0,0,0,0,0,0,0,0,0,0,0,0,0.41301814472891624,0.2808066106804145,-0.47630487397967264,-0.5696065270431669,3.258638901548254,3.2584717104997285,-0.9532375995203971,-0.15506478012380362,-0.13138777391764805,-0.6508767188640497,3.2591994832991933,3.25910113562359,138881704
0,0,0,0,0,0,0,0,0,0,0,0,-0.05457194502019227,0.21392665075381406,-0.2868927582374523,-1.1633031205300235,3.258966596003365,3.2588863443000724,-0.8898269521983805,-0.11403688359700245,-0.11695387565539785,-0.8547003095984828,3.2586152981061094,3.2589256833703137,138882921
0,0,0,0,0,0,0,0,0,0,0,0,0.4580228278664145,-0.3311716355289978,-0.08865885599361133,-0.8733013955713981,3.2589634488777453,3.2588473986205333,-1.1763172717472636,-0.24908004392147587,-0.10254633457020933,-0.5113717211928035,3.2594787906979072,3.2592832755188077,138884137
0,0,0,0,0,0,0,0,0,0,0,0,1.2103420269897016,-0.6425533583823869,0.46193391822980856,-0.1318028011086942,3.2587541650240617,3.2585531423751286,-0.4203808451152855,-0.24302418744852392,-0.1160840888123618,-0.011107779873344882,3.259588940094583,3.2591318200983785,138885353
0,0,0,0,0,0,0,0,0,0,0,0,0.039610509826005676,1.8886321769514294,-2.209495009123684,1.3367986484525978,3.2592238735227435,3.2586318205156113,-0.7900194036983733,-0.19992430209211134,-0.10586143801944708,-0.05438941173427245,3.258937485091386,3.259132606879783,138886569
0,0,0,0,0,0,0,0,0,0,0,0,1.6732995478271897,-0.22759383053706056,0.3709996904134381,-0.4950393194007062,3.2585732053009515,3.258875329360405,0.8964394565152474,-0.052927178493401825,-0.1194381379411385,1.62526929679743,3.2596243452578,3.259300584709714,138887785
0,0,0,0,0,0,0,0,0,0,0,0,0.7617759182186029,-0.17372762843699793,-0.4507214964296217,-0.5063390739368289,3.258848972183343,3.2586231659201577,1.8519720973935243,-0.0005416989972232576,-0.11581855008823276,1.6364199562573378,3.2594213556553546,3.2594197820925452,138889001
0,0,0,0,0,0,0,0,0,0,0,0,0.40241508512676777,0.25836524467053945,-0.5679519257488163,-0.7220096256744415,3.258939058654196,3.2587852428895525,-1.511995984553812,0.773931690923177,-0.13699634516195597,-0.8899532306138551,3.2589787911151396,3.2587207268143565,138890035
0,0,0,0,0,0,0,0,0,0,0,0,0.6742543547456687,0.3962132807032204,0.2672645291405355,0.4047266488941489,3.258301372325584,3.2583576271960286,-0.02960619087293039,-0.12542357747835842,-0.13027801874613984,-0.16878310069836386,3.259233708290304,3.25922662725766,138891069
0,0,0,0,0,0,0,0,0,0,0,0,0.9657387692616903,0.813782169077655,0.6493995367764874,0.8033895735012976,3.2589327644029575,3.2589787911151396,0.33207446719103656,-0.1551379507944525,-0.1245770006867648,-0.16289915596236657,3.2593021582725235,3.2592938970677725,138892103
0,0,0,0,0,0,0,0,0,0,0,0,1.0423197439098053,0.5165192385338828,0.4619370653554279,0.2145619767382117,3.258625919655075,3.258476431188158,0.6579270670327028,-0.18611904217231776,-0.14159114856614452,0.7266339333813111,3.259051568395086,3.258740002958775,138893137
0,0,0,0,0,0,0,0,0,0,0,0,1.3201114082469234,-0.43074865707739074,-0.9177399894881235,-1.0806981540558522,3.2589339445750642,3.2587219069864637,0.29711894954668877,-0.1904553878850207,-0.1412610937668197,0.16890859233243372,3.2596853208166743,3.2594807576514193,138894171
0,0,0,0,0,0,0,0,0,0,0,0,0.23001200318479573,-1.0333217183735033,-1.0322025218251372,-0.6890088664303858,3.259071631320909,3.258655423957756,0.5816053368574782,-0.11006953836316327,-0.13323041596775242,1.0934687964282985,3.2593993257760197,3.25915817727544,138895205
0,0,0,0,0,0,0,0,0,0,0,0,-0.11498810231543807,2.0699349367541,-1.6462409551430885,-0.3195312046445852,3.2587148259538203,3.2585570762821527,0.9917934288732324,-0.20159739274947555,-0.15072253355056445,0.8058769829126576,3.2594170283576283,3.2590944479816493,138896239
0,0,0,0,0,0,0,0,0,0,0,0,2.99984250066787,-0.7333498994529127,0.14264504225791003,0.38975144502537784,3.2588053058153754,3.258754951805466,0.710368408008624,-0.1913562525935474,-0.14657265503080547,0.478499600708437,3.2590661238510754,3.2591310333169736,138897273
0,0,0,0,0,0,0,0,0,0,0,0,0.5203744674175342,-0.024353244823604205,-0.151213091756474,-1.0912075866708262,3.258487052737123,3.2584638426856802,0.3379969642158704,-0.14175676605186058,-0.13010886074410208,-0.03459359819812753,3.2590472410973597,3.259106643093424,138898307
0,0,0,0,0,0,0,0,0,0,0,0,0.587032948378676,-0.2908660043318277,-0.5111935152046102,-0.4841199736738173,3.2584901998627425,3.258258886129723,0.6276005777836534,-0.4102994215845372,-0.12463600929212681,-0.593878733382074,3.2592584919045553,3.2588159273643402,138899341
0,0,0,0,0,0,0,0,0,0,0,0,2.312846221071031,0.48473681029520155,0.665612347795051,0.6954644078569898,3.2589551876729947,3.258963055487043,-0.2995862960322256,-0.023082199464106497,-0.1241399436163835,0.8524324121990695,3.2589693497382815,3.259244723229971,138900375
0,0,0,0,0,0,0,0,0,0,0,0,1.855354864043577,0.9001762747974723,1.5515608610583376,1.067762287588392,3.2586483429251123,3.258792717312898,-0.682507691682302,-0.19977992770432562,-0.11818872907027352,0.14663795788740608,3.2590110491527375,3.2590594362091343,138901409
0,0,0,0,0,0,0,0,0,0,0,0,1.2329470435317806,1.0549161142010823,1.4995435952596181,1.6706854666096527,3.2588977526304426,3.258927650323826,0.045570772358271165,-0.24063630588487456,-0.1344935935132019,0.507135690109216,3.259525604191494,3.2592734407512474,138902443
0,0,0,0,0,0,0,0,0,0,0,0,2.7552140659349043,1.6005749822348334,1.656612701012218,1.4469161804814552,3.258967776175472,3.2590130161062496,-0.003780484650192815,-0.0883941040508871,-0.11112107171071431,-0.09149126905098784,3.2590987752793756,3.2590995620607806,138903477
0,0,0,0,0,0,0,0,0,0,0,0,0.8821161010403753,-0.4080984006045342,-0.9448528700891577,-2.116159524459782,3.2590283583436435,3.2586326072970158,0.1733602015209438,-0.10981973526713076,-0.13918871154650586,0.45220811989404197,3.2594705294931563,3.2589874457105927,138904511
0,0,0,0,0,0,0,0,0,0,0,0,-1.6547857945902102,-0.544568389006661,-1.7910162080545673,-2.6380025193694254,3.2586031029943348,3.2588666747649517,-0.25069058545715633,-0.14337084810386277,-0.12825323680081807,0.03444686346612733,3.2595916938295,3.2594355177206418,138905544
0,0,0,0,0,0,0,0,0,0,0,0,-1.3660283644233184,-0.48867347105425246,-2.8240771083923706,-1.6413550426191141,3.2586322139063135,3.2585582564542594,-0.2315749444454842,-0.10889605389786408,-0.11491335808197953,-0.31310320056715013,3.258918995728373,3.2591314267076763,138906578
0,0,0,0,0,0,0,0,0,0,0,0,-1.0615211440946035,-0.7122932687155329,-2.0853180867812737,-2.245494585692237,3.2588658879835473,3.2586337874691234,-0.3378219053532964,-0.17424572399207638,-0.1456316644706326,0.19548292106186402,3.259058256037027,3.2589783977244373,138907612
0,0,0,0,0,0,0,0,0,0,0,0,0.10462422426035693,-0.7747853487474142,-1.0631611899329652,-1.6326437989048717,3.258658571083375,3.258946533077542,0.8721452202970053,-0.16805296755468457,-0.12090194474481876,1.7398274230751303,3.2594174217483305,3.2594477128324164,138908646
0,0,0,0,0,0,0,0,0,0,0,0,-0.0464787180994413,-0.6747397988724468,-0.6012319923915853,-1.124082854280812,3.258784062717445,3.2584807584858844,0.9690664612134052,0.11239644436793855,-0.10577174493929684,3.1638388232992676,3.258939058654196,3.259155030149821,138909680
0,0,0,0,0,0,0,0,0,0,0,0,-0.6110809220172074,-0.5464708264435323,-1.486290655886013,-1.6523467722352472,3.2590232442645126,3.258549995249509,0.7580575892993914,-0.22123703017676236,-0.13511751116722956,-0.30946118944420686,3.2592518042626146,3.2592813085652956,138910714
0,0,0,0,0,0,0,0,0,0,0,0,-1.190955733174769,-1.0686273537429993,-1.3534178320667543,-1.7236299542939608,3.258669979413745,3.258845825057724,-0.4167109032524709,-0.27126373902127016,-0.11142122881665573,-0.29233531860534173,3.259321827807644,3.2592994045376065,138911748
0,0,0,0,0,0,0,0,0,0,0,0,-0.6370927020421865,-0.8900118458285148,-1.4748390525387587,-1.426467338379304,3.2588532994810695,3.2587891767965766,0.10217694070064313,-0.14103292715941992,-0.10584098170292158,-0.1807315565027662,3.259171552559322,3.259037012939097,138912782
0,0,0,0,0,0,0,0,0,0,0,0,-1.155862135393874,-0.40901460755045504,-1.6231764582605905,-1.161547811215855,3.2587958644385173,3.2585256050259597,-0.08598301243579536,-0.1846619230105785,-0.12046134715811575,-0.44370616003348345,3.259244723229971,3.2592954706305823,138913816
0,0,0,0,0,0,0,0,0,0,0,0,-0.4278784785125826,-0.5853307468093332,-1.0261553199476383,-0.31563860364420454,3.258381624028876,3.2584740708439432,-0.062136061446197204,-0.11435985736368386,-0.10320683755956143,-0.27417010953070037,3.259279735002486,3.259176273247751,138914850
0,0,0,0,0,0,0,0,0,0,0,0,0.46174312373913806,0.5304519570412585,-1.0273170026918652,1.3532305780924057,3.2589488934217563,3.258610970808383,-0.08958607787919971,-0.20283303294575605,-0.13460728342619935,-0.024595966886993274,3.2592289876018743,3.2589217494632896,138915884
0,0,0,0,0,0,0,0,0,0,0,0,0.7609942508929074,-0.716903020966413,1.6165863772137614,-0.4361585660169799,3.258727414456297,3.2589839051942713,-0.36071685084305416,-0.1647197681331358,-0.13892120586886475,0.03010737062780507,3.2591054629213168,3.2591479491171773,138916918
0,0,0,0,0,0,0,0,0,0,0,0,2.4840592961382026,0.6830938438288979,0.5119106664551099,0.2537126128330961,3.258999247431665,3.2587093184839864,-0.4260031850341779,-0.133564011283399,-0.11911083687673055,0.9255338460843379,3.2591204117680084,3.259099168670078,138917952
0,0,0,0,0,0,0,0,0,0,0,0,2.5818400957393757,0.7191685580216118,0.5619527175370118,0.18445460611040665,3.2591613244010595,3.2586577843019704,0.6959730620352104,-0.14646368580623698,-0.12272609743190974,-0.4169394632505731,3.2594020795109366,3.2590975951072685,138918986
0,0,0,0,0,0,0,0,0,0,0,0,1.114091123830214,0.6865604026985648,0.503503513753833,-0.005197084569583483,3.258763213010217,3.258647162753005,1.3315968431945853,0.2807849741917818,-0.07293266927393309,1.6858963115091694,3.2592093180667536,3.259437484674154,138920020
0,0,0,0,0,0,0,0,0,0,0,0,1.1639006810069896,0.498442935757987,0.10846765142293589,-0.5306148207920577,3.259195156001467,3.258765179963729,0.6743247716814007,-0.2186142943637722,-0.12373160406727839,0.4887788997624993,3.259160144228952,3.25905707586492,138921054
0,0,0,0,0,0,0,0,0,0,0,0,0.7381646082597504,0.5777158829827169,0.05122655048686867,-0.5095066558726615,3.258736069051751,3.2586711595858526,-1.227902987945436,-0.1943464153225917,-0.11044365292115842,-1.1687834464053448,3.2592659663279013,3.258879263267429,138922088
0,0,0,0,0,0,0,0,0,0,0,0,0.4405932594052862,0.09208528901163207,-0.34537067954190726,-0.10239920644750672,3.258612544371193,3.2585728119102493,-1.6929041734819619,-0.0885231362012787,-0.14538382832811217,-1.4017085077415117,3.259052355176491,3.2591900419223356,138923122
0,0,0,0,0,0,0,0,0,0,0,0,1.3824646213608527,0.5819975473877844,-0.24592701744163242,0.18530354324621476,3.258979971287247,3.258583040068512,-2.0915718187775396,-0.216237034349088,-0.11966669793924067,-1.584499464571412,3.259259672076663,3.2590173434039764,138924156
0,0,0,0,0,0,0,0,0,0,0,0,0.8971790310357846,-0.27012762667270024,-0.11628865197761677,-0.13431971482273516,3.2583906720150315,3.258688075386056,-0.20292154585379907,-0.1413586546610182,-0.1385529921714058,0.18324532309118785,3.2592938970677725,3.2592289876018743,138925190
0,0,0,0,0,0,0,0,0,0,0,0,0.4205464626010016,-1.1390159653444247,-0.0366648002463341,-1.4073457965070957,3.2588969658490377,3.2588371704622707,0.1641206340933602,-0.11936772100540649,-0.1546387379930899,2.011528219166782,3.2591298531448665,3.259388310836352,138926224
0,0,0,0,0,0,0,0,0,0,0,0,0.8031299356377047,-0.9518280806336498,-0.5406458903128969,-1.1893735157696623,3.259027571562239,3.2587242673306784,2.0488519488396584,-0.07987326143661276,-0.129988876579866,2.5072760352225343,3.2594256829530814,3.2592179726622073,138927258
0,0,0,0,0,0,0,0,0,0,0,0,0.8997793435787372,0.0589515637101607,-0.38616096808445066,-0.23936368696256718,3.2589256833703137,3.258902473318871,2.088465212400581,-0.254848725181666,-0.14134016529800478,1.5720277991327998,3.2593418907334675,3.2591499160706894,138928292
0,0,0,0,0,0,0,0,0,0,0,0,1.2546826666215258,-0.3114666952451104,-0.19451793366884396,-0.6334971110221279,3.259050388222979,3.2590448807531454,1.0045341735522955,0.4419205596352291,-0.1351690453492457,0.3405343342464368,3.25922820082047,3.259326548496073,138929326
0,0,0,0,0,0,0,0,0,0,0,0,-0.1583889315591969,0.12386496351539654,0.11333468119319452,-0.4127541795675968,3.2589532207194827,3.2588902782070965,-0.46153305310404935,-0.30401115465297157,-0.12800933456532176,-1.3751526683750948,3.259462268288406,3.2593009781004163,138930360
0,0,0,0,0,0,0,0,0,0,0,0,0.24627713516678035,-0.13989878176436205,-1.1510395587729882,-1.4211376811430074,3.258695943200104,3.258553535765831,-1.1387901590812395,-0.10887363062782653,-0.10310180224201707,-1.0271155866522297,3.258995313524641,3.2592427562764588,138931394
0,0,0,0,0,0,0,0,0,0,0,0,-0.8181743762701006,-0.9870577915975799,-1.9224173572560974,-2.3132022396567153,3.2591526698056064,3.2587136457817127,-0.4283694301091945,-0.13443183117292298,-0.11575560757584662,-0.36620307757891146,3.2589123080864315,3.2590519617857883,138932428
0,0,0,0,0,0,0,0,0,0,0,0,-0.48810816861488443,-0.7115320577063629,-1.1151225942519418,-0.9703288519774498,3.258763213010217,3.258882017002346,-0.2723927703371966,-0.15560293860470514,-0.1294015442611628,-0.6726048675304492,3.2591054629213168,3.259294683849178,138933462
0,0,0,0,0,0,0,0,0,0,0,0,0.3417971184011839,-0.8546145504253566,-1.0884750948518627,-1.6582716296042954,3.2586255262643724,3.258507902444351,-0.2613939596884202,-0.1662048180347464,-0.09741494624792889,-0.37904807079411396,3.259378082678089,3.2590464543159547,138934496
0,0,0,0,0,0,0,0,0,0,0,0,-0.014711238707451665,-0.7527798596358132,-0.9421188047073846,-0.2764533491675078,3.258850939136855,3.2588293026482225,-0.23636014894964086,-0.1741847484332023,-0.11616079999933242,-0.2301693594657611,3.2593104194772744,3.259168012043,138935530
0,0,0,0,0,0,0,0,0,0,0,0,0.2666252692491137,0.4596565794535374,-0.5959094161879319,0.07047437077455171,3.2587443302565013,3.2584658096391923,-0.30742067187078853,-0.1838574390241431,-0.12498691379867956,-0.39808621383741066,3.25944338553469,3.259361560268588,138936564
0,0,0,0,0,0,0,0,0,0,0,0,1.8764024467948015,0.0918893804418302,0.43722544160192506,0.19883303628361657,3.258976037380223,3.2588473986205333,-1.3212376858279329,0.005634928421369602,-0.09942123883023725,-0.2228204277539763,3.2594382714555588,3.2592584919045553,138937598
0,0,0,0,0,0,0,0,0,0,0,0,0.9447210842038493,0.20230313566960523,0.1297835266332062,-0.38412281085524685,3.258833629945949,3.258795471047815,-0.6561627097323787,0.15428547314232266,-0.12441649728018013,0.2379927203646565,3.258972496863901,3.258776588294099,138938631
0,0,0,0,0,0,0,0,0,0,0,0,1.2198007130385293,0.08708253944904082,0.19043335800568556,-0.45641346650284126,3.2589842985849735,3.2587101052653913,1.253794783806179,-0.5884011612416697,-0.1354507130921737,-0.9694657527763548,3.259321827807644,3.2593375634357407,138939665
0,0,0,0,0,0,0,0,0,0,0,0,0.33821175553938815,0.07798262572081395,-0.5851395589279602,-0.7172067185886762,3.2588005851269464,3.258529145542281,-0.34836044888024914,0.04862033708337987,-0.12731185284994276,0.2533164683957658,3.259077532181445,3.2589178155562655,138940699
0,0,0,0,0,0,0,0,0,0,0,0,0.6410230685499988,-0.1655380207941557,-0.8420819094278703,-0.6193200968885536,3.2584485004482864,3.258767540307944,-0.10437953524345578,-0.303806984878419,-0.12558526105705034,-0.1923688402615595,3.25916958560581,3.2589052270537886,138941733
0,0,0,0,0,0,0,0,0,0,0,0,0.6744715064134009,0.28824130156532546,0.045226555493659434,-0.35604887676821667,3.2589103411329194,3.2588328431645444,-0.747084349046272,-0.2685064635880546,-0.13469540294354,-0.11112736596195291,3.2595059346563735,3.2595381926939715,138942767
0,0,0,0,0,0,0,0,0,0,0,0,1.5631997183799407,0.0936120383276985,0.5743874042495971,-0.20898330318728722,3.258725447502785,3.2588045190339705,-0.41613301231062555,-0.21764458628232314,-0.12016079666147192,0.23375708267177134,3.2591377209589147,3.2591078232655315,138943801
0,0,0,0,0,0,0,0,0,0,0,0,1.6937818281390462,0.17309466279681476,0.08471668776472661,-0.011404003072262177,3.259082646260577,3.2588332365552466,0.6616269065889008,-0.16382283733163325,-0.1363637729124752,1.709136654035646,3.2590358327669895,3.259020883920298,138944835
0,0,0,0,0,0,0,0,0,0,0,0,0.29822988489030416,-0.43810230947760453,1.5674054583794423,-2.268472536620204,3.2588887046442867,3.258649916487922,1.8819350936335435,-0.09019032599810671,-0.12526307407177378,2.0838035325769817,3.259335203091526,3.259316713728513,138945869
0,0,0,0,0,0,0,0,0,0,0,0,1.9498012840510945,-2.370594402622509,0.3553868002160549,-1.0547748869389162,3.25867076619515,3.2587160061259275,1.5903838026981119,-0.029208079482088024,-0.13197667979916095,0.5421517899217355,3.259163684745274,3.2592156123179925,138946902
0,0,0,0,0,0,0,0,0,0,0,0,0.9743823497751176,0.7144486563740559,-0.18169654389578627,-0.8802317595758151,3.2586825679162224,3.2586487363158145,-0.05864078505525411,-0.11230517772497865,-0.15508562983103152,0.01269865187390469,3.2591302465355687,3.2590728114930165,138947936
0,0,0,0,0,0,0,0,0,0,0,0,0.7778270456584746,0.2551001018405082,0.29387701676809985,0.029834357480330163,3.2583627412751603,3.2586503098786244,0.7355088276277575,-0.34856304509199204,-0.10342634957150812,0.21932869187935494,3.259038193111204,3.258918995728373,138948970
0,0,0,0,0,0,0,0,0,0,0,0,0.9392179416677882,0.4149921792736267,0.14698296153342266,0.2061760671348652,3.2589917730083195,3.2589193891190753,-0.8805464721377458,0.49261524589243477,-0.12387715862717134,-1.062293370043441,3.259221119787826,3.258756525368276,138950004
0,0,0,0,0,0,0,0,0,0,0,0,0.7563746638744668,0.8100599062514192,0.4620393469380554,-0.10040117506994904,3.258848972183343,3.258668012460233,0.2786323402681756,-0.0407824207284952,-0.13399870800956584,-0.10277646813112117,3.259147555726475,3.259168405433703,138951038
0,0,0,0,0,0,0,0,0,0,0,0,0.5540345494788348,-0.17858285648618416,-0.4187494538723771,-0.2820430376580998,3.2591739129035364,3.258710892046796,-0.5663653810459829,-0.16264030488017853,-0.11565489955602878,-0.04783512924136272,3.2592820953467,3.2589901994455097,138952072
0,0,0,0,0,0,0,0,0,0,0,0,0.1778621647193628,0.3218970563288994,0.10370054289109026,-0.065909858454449,3.25879468426641,3.25867076619515,0.16732676831802945,-0.0971777316543736,-0.135905866134866,0.8751192540072505,3.2594524335208455,3.2593949984782933,138953106
0,0,0,0,0,0,0,0,0,0,0,0,-0.818476500329554,-0.016476776179883024,-0.6888798342799942,-0.9253190547608202,3.2589197825097775,3.258638901548254,1.0708295548951094,-0.09683469496186911,-0.12249242335467617,1.2212660934050192,3.2589138816492413,3.259309239305167,138954140
0,0,0,0,0,0,0,0,0,0,0,0,-2.191931687823735,-1.0864168746968357,-1.476084134111897,-1.6230073002585528,3.258979184505842,3.2588867376907746,1.3173710486139116,-0.10563012428642801,-0.13013443113975895,1.7469186838768342,3.259446139269607,3.2591821741082874,138955173
0,0,0,0,0,0,0,0,0,0,0,0,1.0519951882356628,-1.1099310171521921,-0.9343182604692292,-0.19511982144353646,3.2584292243038684,3.2586916159023778,2.9108177913210143,-0.15217611219598198,-0.13720680918774714,3.118965926047078,3.2591892551409307,3.2590952347630537,138956224
0,0,0,0,0,0,0,0,0,0,0,0,-0.004411483336863915,0.3575189778231356,0.048323720493760165,-0.2877495631873087,3.25906848419529,3.2586408685017663,1.3472557601041508,0.0941022031429056,-0.10692555986947534,0.5510797919130077,3.2588053058153754,3.2588796566581317,138957274
0,0,0,0,0,0,0,0,0,0,0,0,1.7714096154462833,0.25979482648310975,-0.14751364559097835,-0.7530092064153202,3.2588261555226032,3.2584677765927044,-1.377159747738808,-0.1411446501189053,-0.10304397380876228,-1.5465238865046365,3.2592498373091026,3.259315926947108,138958324
0,0,0,0,0,0,0,0,0,0,0,0,1.4865243299632465,-0.09644917207350398,-0.818742039053683,-0.8860008342267077,3.258811993457316,3.2588741491882978,-1.4553732938019388,-0.44613377405807664,-0.1269991072415241,-1.490714727725354,3.259380443022304,3.259061009771944,138959374
0,0,0,0,0,0,0,0,0,0,0,0,1.144317298450148,-0.015444912367452664,-0.3184584281991038,-0.9730479685125314,3.2589347313564696,3.2590027879479866,-1.318217232014803,-0.4351695817911126,-0.10943460576946804,-1.3522836866716963,3.2589245031982066,3.259014589669059,138960424
0,0,0,0,0,0,0,0,0,0,0,0,0.46730016080142983,-0.17767058344728748,-0.9795188521765293,-1.26800877666578,3.2586896489488657,3.2586896489488657,-1.294967054720766,-0.1435392193244957,-0.10850266319545068,-0.5731627789929842,3.259488232074765,3.2591589640568452,138961474
0,0,0,0,0,0,0,0,0,0,0,0,0.6241812257982762,-0.536659662325342,-1.4264441283278617,-1.8098749649375634,3.2587045977955578,3.2587443302565013,-0.37459016735436523,-0.32128376022383687,-0.12432208351160091,-0.5966159458894665,3.2593348097008237,3.2589606951428287,138962524
0,0,0,0,0,0,0,0,0,0,0,0,-0.07223872807487583,-0.5226938989989638,-1.4641285972748512,-1.2755245060353881,3.2589178155562655,3.2588595937323084,-1.4273304375803992,-0.1472280439410262,-0.1312457598740768,-1.1305828488567886,3.259012622715547,3.259206564331837,138963574
0,0,0,0,0,0,0,0,0,0,0,0,-0.27657097298752936,0.38077387580560157,-1.3309516824426273,-0.7445241623549654,3.2587223003771664,3.258386344717305,-1.4914519419016767,-0.31256464869554623,-0.11928038826947071,-1.1387189553641026,3.2594213556553546,3.2591251324564374,138964625
0,0,0,0,0,0,0,0,0,0,0,0,1.6264801533794584,0.07304439223341849,-0.21959659094769846,0.6066143639820056,3.258611757589788,3.258786029670957,-1.3375995919227113,-0.25470199044966585,-0.1034818176605484,-0.5307029403093981,3.2587388227866674,3.2587663601358363,138965675
0,0,0,0,0,0,0,0,0,0,0,0,1.3780035707954847,0.5867359383983539,2.0293747817724683,-1.4652517277302415,3.2585948417895843,3.2587797354197185,-0.4970676418623497,-0.17692196094059476,-0.1074641117410793,-0.3628997758507461,3.2589815448500565,3.259053535348598,138966725
0,0,0,0,0,0,0,0,0,0,0,0,2.795412694861018,0.6208755637258963,1.0153925437203102,0.4230441001706242,3.2590759586186357,3.2586947630279974,-0.08908568490572986,-0.07922377338692825,-0.1162630815819599,-0.09572100588333676,3.2591900419223356,3.2591605376196546,138967775
0,0,0,0,0,0,0,0,0,0,0,0,2.078043505912245,1.2692156993407844,0.6770887347565573,0.7753061980374095,3.258813567020126,3.258992559789724,0.7050879246101289,-0.42318847455840997,-0.12711397732662882,0.970530661407788,3.259035045985585,3.2592746209233545,138968825
0,0,0,0,0,0,0,0,0,0,0,0,3.089821182468078,1.066572674104294,1.6086005459547692,2.0282001171350617,3.259007508636416,3.258642048673874,1.1260620029046537,0.08858371836945038,-0.1171139856712801,1.8354422134688153,3.259387130664245,3.2593104194772744,138969875
0,0,0,0,0,0,0,0,0,0,0,0,2.695308529771391,1.2412873198136471,1.0121927037468794,0.8419021298768675,3.259291536723558,3.2587722609963725,2.3440653138238563,-0.1686202369475647,-0.13597864341481247,2.36292525087896,3.259195942782872,3.25918099393618,138970925
0,0,0,0,0,0,0,0,0,0,0,0,0.9481207666541059,0.24195691847287637,-0.5764959784145329,-1.0435966901298392,3.2586023162129303,3.258791930531493,1.7792707418526104,-0.21402578521082224,-0.15096171509763182,1.3743513315142788,3.25946462863262,3.2591648649173814,138971975
0,0,0,0,0,0,0,0,0,0,0,0,-0.6977948543780869,-0.9739897458541089,-1.5796981310484564,-2.0120408072520264,3.258906800616598,3.258621985748051,0.5777025076988348,-0.1448126250282079,-0.15236218599822354,0.16227720526185097,3.2592364620252203,3.2591263126285446,138972993
0,0,0,0,0,0,0,0,0,0,0,0,0.18598135542647307,-0.8094949972027536,-1.4929102412355233,-1.425760415287067,3.2588529060903673,3.258668012460233,0.2943416111876501,-0.13536967460747654,-0.15524888697253308,-0.07981739995687007,3.2591137241260677,3.2589622687056385,138974011
0,0,0,0,0,0,0,0,0,0,0,0,0.5549613779737207,-1.2896680819592572,-1.5874140962855932,-2.468939717881646,3.2588151405829358,3.2583529065076,-0.0592599820208528,-0.2348212045217996,-0.12317967691179238,-0.3646625595882606,3.2590574692556222,3.259250624090507,138975029
0,0,0,0,0,0,0,0,0,0,0,0,-0.919677832088212,-2.232434014372112,-0.2678258976728794,-3.0968211766268223,3.259261639030175,3.2586884687767586,-0.40254962474699313,-0.07422299077784905,-0.13760649414139917,-0.20691800199961685,3.259140868084534,3.25922662725766,138976047
0,0,0,0,0,0,0,0,0,0,0,0,-1.6227818873860702,-1.5334239761142703,-1.9462395246314437,-1.5551025575521655,3.2585979889152035,3.258701057279236,-0.07149679321012416,-0.22263356717032995,-0.1327146807568885,0.12369737907616841,3.2592368554159226,3.2589854787570807,138977065
0,0,0,0,0,0,0,0,0,0,0,0,-1.1138578431436827,-0.6386733458844834,-0.9709555233663945,-1.4565570064255005,3.2590688775859924,3.258682961306925,0.4173568507858336,-0.025023975971219057,-0.14732639161662955,1.1827307203687094,3.2591613244010595,3.259322221198347,138978083
0,0,0,0,0,0,0,0,0,0,0,0,0.025380781338308015,-0.3360138816850044,-0.3883883462415154,-0.6681501112163198,3.259195549392169,3.258555502719343,-0.5125526800814486,0.004311955489153324,-0.13866235478667674,-0.6536528770509811,3.259222693350636,3.2592954706305823,138979101
0,0,0,0,0,0,0,0,0,0,0,0,0.37895483719764195,0.054426390460299304,-0.1994420050909525,-0.9406026769402833,3.2585771392079756,3.258081860313637,-0.12840351204913997,-0.14235590009163618,-0.13375244542985504,-0.4513804258561642,3.2597215127612964,3.258971710082496,138980119
0,0,0,0,0,0,0,0,0,0,0,0,-0.02444844537358825,-0.20853995186566732,-0.4696113311781086,-0.6435348681849083,3.2587813089825284,3.2585055421001363,-0.40386551664656595,-0.14852111917985908,-0.12698691212974933,0.0801993823289135,3.2587588857124903,3.25914676894507,138981137
0,0,0,0,0,0,0,0,0,0,0,0,1.37487965522762,-0.12745229333070437,-0.5769826027134183,-0.8498970091220152,3.2586550305670534,3.2585181306026136,-0.6350919169297119,-0.09291337644021229,-0.11589211414958406,0.608000279426608,3.2590067218550107,3.2589386652634937,138982155
0,0,0,0,0,0,0,0,0,0,0,0,0.6437799505925119,-0.3231618074371585,-0.4836600999426961,-1.1873204096937666,3.258546061342485,3.2587112854374984,-0.26915595163773914,-0.2072952636832313,-0.13404552150315302,0.004427218964960451,3.25935211889173,3.2592423628857565,138983173
0,0,0,0,0,0,0,0,0,0,0,0,0.22823191025637507,0.23781097386014147,-0.3487648545223301,-0.8640338974039432,3.2593273352774776,3.2588013719083513,0.7562090463887509,-0.16779018256547243,-0.11957228417066146,1.0987614749385683,3.258961875314936,3.2593670677384217,138984191
0,0,0,0,0,0,0,0,0,0,0,0,1.3003089070688374,0.09970762726159421,0.06908884872065171,-0.7869651182848356,3.258939058654196,3.258290357385916,-0.32000838756661265,-0.19196207427526404,-0.13045779829714277,-1.2069191344880024,3.2592699002349255,3.2590141962783568,138985209
0,0,0,0,0,0,0,0,0,0,0,0,-1.1912067164429088,-0.1042154913205494,-0.243589489887892,-1.1838392953681105,3.258981151459354,3.2588989328025497,-1.2372668668349822,-0.2577735850541097,-0.13157935518972338,-0.8750075310477651,3.2593367766543357,3.259193189047955,138986227
0,0,0,0,0,0,0,0,0,0,0,0,-0.08784925792804454,-0.6204593563627429,0.22502970993872998,-0.5735097495925128,3.2593584131429685,3.2589339445750642,-0.3867833121756687,-0.1492831169704338,-0.12933388106034766,-0.1420423677018127,3.25939775221321,3.259092087637435,138987245
0,0,0,0,0,0,0,0,0,0,0,0,-0.7448070102700007,-0.15039641265826376,-0.2858530266109736,-1.405579865643962,3.259001214385177,3.2586711595858526,0.6219070341476242,-0.2548825567820736,-0.1414939810626484,0.5534558717555846,3.2593399237799554,3.2591589640568452,138988262
0,0,0,0,0,0,0,0,0,0,0,0,-0.1783401344227951,-0.05834259490282474,-0.8040091638575987,-1.0815978385922715,3.2584606955600615,3.258891458379204,1.8566495128452196,-0.2509317339577357,-0.13891923891535268,2.087936495296537,3.2590944479816493,3.2593234013704535,138989296
0,0,0,0,0,0,0,0,0,0,0,0,-0.213742937295787,-0.12821547129338637,-0.5757198185586713,-0.8675311407483983,3.2586007426501205,3.2585370133563294,0.4856423956921572,-0.11956048244958906,-0.11944757931799642,0.9834610204054142,3.2590043615107964,3.258769507261456,138990330
0,0,0,0,0,0,0,0,0,0,0,0,-0.08877765998574018,-0.4209036613587929,-0.3524037185196541,-0.1126824394085931,3.2585055421001363,3.2588281224761153,0.9111329926410904,-0.08765020223262336,-0.13451798373675153,0.9088025461199934,3.2590405534554185,3.2592297743832797,138991364
0,0,0,0,0,0,0,0,0,0,0,0,0.333923796883082,-0.38162635345773144,-0.851196772002789,-0.2986295698439562,3.2588556598252842,3.258843071322807,0.9025558951563709,-0.1751064628489569,-0.15116824521639885,0.711279107484711,3.259389097617757,3.25963575358817,138992397
0,0,0,0,0,0,0,0,0,0,0,0,0.04918013205291415,-0.02399997997283697,-0.5710931505075872,-0.259702773058745,3.259025604608727,3.258566911049713,1.2361826820591308,-0.12843419652392823,-0.13377644226270224,0.10359118027581933,3.2592702936256277,3.258839137415783,138993431
0,0,0,0,0,0,0,0,0,0,0,0,-0.37243950038427115,-0.2460643107967747,-1.204893565761276,-0.8979248998075604,3.258549995249509,3.2588623474672254,-0.4162785668705185,-0.24820120909228433,-0.127031365279122,-0.9524287882362351,3.2591727327314297,3.259235281853113,138994465
0,0,0,0,0,0,0,0,0,0,0,0,0.29472162660618145,0.2689789258216531,-0.4202628279045615,0.026851669174631734,3.258553535765831,3.2587140391724154,-0.0007136107341779153,-0.1773889157043595,-0.11080753932089081,-0.11071115859879953,3.259200663471301,3.2591192315959012,138995499
0,0,0,0,0,0,0,0,0,0,0,0,2.2811369635029988,-2.084942398660469,2.5599911761273355,-0.9181691787444566,3.259047634488062,3.258518917384018,0.0689244114070429,-0.19456041986470457,-0.13787557338184994,-0.08663525422039678,3.259223086741338,3.259111363781853,138996532
0,0,0,0,0,0,0,0,0,0,0,0,2.1518341603081415,0.13928548565929957,-0.21693058215744282,-0.49853144866603,3.2585826466778096,3.2587667535265386,0.6529577556798167,-0.06414825488904177,-0.1300596869063004,0.5978688952766532,3.259128672972759,3.259208137894647,138997566
0,0,0,0,0,0,0,0,0,0,0,0,1.286257384569333,0.43696973764535635,0.540573506423653,-0.0902926075807342,3.258950466984566,3.2583529065076,0.43745950906986103,0.12682798228597428,-0.13690822564461538,-0.624377134368078,3.2591868947967164,3.2589854787570807,138998600
0,0,0,0,0,0,0,0,0,0,0,0,1.056599039626007,0.6400576877662763,0.4551959222788718,0.08422967007513882,3.2585940550081793,3.258504361928029,0.9059693462812121,-0.9790219997193813,-0.11774695131146326,-2.638259010107399,3.259252197653317,3.2591888617502285,138999634
0,0,0,0,0,0,0,0,0,0,0,0,0.6512413920451869,0.47266640337305105,0.7183884642587262,0.5430620960071202,3.2586337874691234,3.258666832288126,-1.1572051712519136,-0.2631441549234575,-0.1135919587125729,0.16188696168505687,3.2592388223694346,3.2591628979638694,139000667
0,0,0,0,0,0,0,0,0,0,0,0,2.063838561038799,1.659449441367321,2.0080176005384445,1.8405968118425382,3.258894605504823,3.258813567020126,-0.9416542102878344,-0.054072732218829654,-0.12523317637839035,-0.15515053929692973,3.2592116784109684,3.2587498377263353,139001701
0,0,0,0,0,0,0,0,0,0,0,0,1.9741620032980445,1.375726625409916,1.2938714616145446,0.7580760786624048,3.2587761949033967,3.2583670685728867,-0.5335038821105815,-0.1670034011606456,-0.12195623182728668,0.7983097193610333,3.2591149042981744,3.2592443298392686,139002735
0,0,0,0,0,0,0,0,0,0,0,0,0.42956769818874574,1.416977967855688,-0.08597907852877122,0.4511144937413327,3.2591062497027217,3.259049601441574,-0.0820400574255058,-0.15612260772259326,-0.13106873405799077,0.07344014328004637,3.259075565227933,3.259025604608727,139003769
0,0,0,0,0,0,0,0,0,0,0,0,0.18427876046642785,-0.30887189017199157,-0.7213129307404673,-2.0275148305314574,3.2589284371052307,3.258815533973638,-0.5376333043138152,-0.08572927543273871,-0.13648297029530648,-0.8794929718366827,3.2593202542448347,3.259083826432684,139004802
0,0,0,0,0,0,0,0,0,0,0,0,-0.15052505141795294,-0.9682293257986695,-1.7751999348640364,-0.4046471839722614,3.2583922455778414,3.2585067222722435,1.313312830127815,-0.13118714465941722,-0.1312776245209723,2.121090676914534,3.258911127914325,3.2590110491527375,139005858
0,0,0,0,0,0,0,0,0,0,0,0,-0.7390937970988508,0.516146304147995,-0.5840207557702966,-1.492725347605389,3.2586121509804906,3.258885557518668,1.1131198421859554,-0.12890705214822912,-0.14446722799148895,0.8429001620888902,3.2593277286681803,3.25938634388284,139006914
0,0,0,0,0,0,0,0,0,0,0,0,-0.180532500807345,-0.6144239562063164,-1.0819404818940737,-0.9084905872929796,3.2584272573503563,3.2587333153168334,-0.03388038085465203,0.02999918818464138,-0.13935432903222192,-0.30189117215766575,3.2590279649529412,3.2591920088758477,139007970
0,0,0,0,0,0,0,0,0,0,0,0,0.2232897428619555,-0.7594497989952324,-1.5905844319563427,-1.7399658966023799,3.2584992478488974,3.2588403175878904,1.0397418546368902,-0.5265286715660895,-0.11645466285403523,-0.43226517823519445,3.259343464296277,3.259374148771065,139009026
0,0,0,0,0,0,0,0,0,0,0,0,-0.20681808076120384,-1.1989687083922276,-1.9240943818204859,-1.1766697498166263,3.258821434834174,3.2588556598252842,-1.1556394762563083,0.6403554845280033,-0.11666552027052882,1.1403471994813918,3.2592242669134457,3.258986658929188,139010082
0,0,0,0,0,0,0,0,0,0,0,0,0.10222493436633757,-0.9603335810105301,-1.0596663069327243,-1.659992713927354,3.258780128810421,3.2586113641990853,1.4461616571142264,-0.23240657239038615,-0.11696449720436301,0.316720034685139,3.2590405534554185,3.2590177367946787,139011137
0,0,0,0,0,0,0,0,0,0,0,0,0.022240736751644223,-0.65623627379373,-1.1795119976415631,-1.3790578578779527,3.258756525368276,3.2589162419934556,-0.8540598695349537,-0.16095777284595641,-0.12565017052294855,-0.9405692387305782,3.2594583343813817,3.259257705123151,139012193
0,0,0,0,0,0,0,0,0,0,0,0,1.306173969051119,-0.6577000805974103,-0.6126127854124052,-0.8840303401983189,3.258847005229831,3.258558649844962,-0.1019672634562568,-0.19979802367663663,-0.10620565488405882,0.5200955534095232,3.258966596003365,3.259168405433703,139013249
0,0,0,0,0,0,0,0,0,0,0,0,1.034691504799307,-0.7680949530714694,-0.37236672310432467,-1.1888577805587983,3.2586357544226354,3.2585531423751286,0.3312326110878719,-0.15756477803764082,-0.11787322972693798,0.1112383021400335,3.25905550230211,3.259016556622571,139014305
0,0,0,0,0,0,0,0,0,0,0,0,0.7923762073965319,-0.24408752251714735,-1.2610961152429718,-0.353458005602122,3.258852512699665,3.2587502311170375,0.06834848741870968,-0.17221976187464735,-0.12370013281108531,0.12121823086955916,3.2592765878768666,3.259160144228952,139015361
0,0,0,0,0,0,0,0,0,0,0,0,-0.6269180449149662,0.05054244405537176,-0.6557917423000028,-1.9820365049882536,3.2588867376907746,3.258802945471161,0.06891969071861394,-0.11259510667265733,-0.10977803585267494,-0.1917354812306739,3.258913488258539,3.258701450669938,139016416
0,0,0,0,0,0,0,0,0,0,0,0,1.2493825136879102,-0.6532925311675705,-0.3438580922911277,-0.6617378427669813,3.2587962578292196,3.258811993457316,-1.198428582957814,0.046864240987806435,-0.14203725362268133,-0.12649674731454222,3.259079499134957,3.259029538515751,139017472
0,0,0,0,0,0,0,0,0,0,0,0,1.3575519749584168,-0.33379673168620244,-0.4125854149562615,-0.6356143397825169,3.2586723397579593,3.259005541682904,-1.1675005993247747,-0.1488578616211249,-0.11478589949439758,-0.703724432435564,3.2595153760332316,3.2593375634357407,139018528
0,0,0,0,0,0,0,0,0,0,0,0,0.5875443562918135,0.19632674411854076,-0.2245544939702146,-0.5811462499077618,3.258846611839129,3.2587494443356326,-0.5170916220058943,-0.16076265105755938,-0.11143696444475226,-0.2362381978318927,3.2592887829886417,3.25901144254344,139019584
0,0,0,0,0,0,0,0,0,0,0,0,0.33227667001207706,0.20597858500225363,-0.3395756411046554,-0.8117392911600221,3.2586825679162224,3.258847792011236,1.174224826601127,-0.4958984846947771,-0.13238423256686122,0.4870424732020465,3.259550781196449,3.2594201754832475,139020640
0,0,0,0,0,0,0,0,0,0,0,0,-0.34116808666802484,0.32776880595312186,-0.20936567895003305,-0.6037906055200821,3.258970529910389,3.258623952701563,0.5886222468164262,-0.1523617926075211,-0.13773001882195698,2.1329030195359016,3.2593064855702503,3.2592270206483622,139021695
0,0,0,0,0,0,0,0,0,0,0,0,0.005114865912779082,0.07446413927842847,-0.25722637858705266,-0.37666687687240563,3.258813567020126,3.258509869397863,1.0145365255518586,-0.23923662176568766,-0.12053727156368155,1.5786831830362298,3.2591837476710968,3.2587604592753,139022503
0,0,0,0,0,0,0,0,0,0,0,0,0.833002452016169,0.4763587685059033,-0.5531860057337291,0.010290707384432243,3.2583387444423133,3.2584075878152357,0.9613654448229604,-0.18213360096616757,-0.1401934314004697,1.3725031819943405,3.2593060921795476,3.2590964149351613,139023310
0,0,0,0,0,0,0,0,0,0,0,0,1.103440070562371,0.038489739714829885,-0.431851724606958,-0.8515311540998404,3.2589673827847694,3.258904046881681,0.43113221301224386,-0.2620580031940941,-0.12539525334778467,0.7656099040043239,3.2591802071547753,3.2592093180667536,139024118
0,0,0,0,0,0,0,0,0,0,0,0,0.22273742231576707,0.15526501599133205,0.17023864629729343,-0.9135995523452225,3.2586577843019704,3.2581707666123823,-0.3055021054151184,-0.19179685018025042,-0.129525462332423,0.01501336276690516,3.259353299063837,3.259042127018228,139024925
0,0,0,0,0,0,0,0,0,0,0,0,-0.8289678369722171,2.622358944697254,-1.1880308733023253,0.20997268080385692,3.2586133311525973,3.2588698218905714,-0.6607842637043314,-0.10053296095525753,-0.13940783016775013,-0.20371344133775726,3.258974463817413,3.2593123864307865,139025732
0,0,0,0,0,0,0,0,0,0,0,0,-0.3135532395307111,-0.03665181835315447,-0.1009786726210919,-0.2767149539846127,3.2587832759360404,3.258452040964608,0.19634956077928073,-0.2641201572561451,-0.15046997671961507,0.09986104963553544,3.2589795778965445,3.2590079020271183,139026540
0,0,0,0,0,0,0,0,0,0,0,0,1.1824077466020282,-0.3332621137216227,-0.20413436938933963,-0.9517643513398589,3.2590358327669895,3.258511836351375,0.12336339036981944,-0.05232529071870932,-0.10531501833379486,-1.9415959407801555,3.259313959993596,3.2593584131429685,139027347
0,0,0,0,0,0,0,0,0,0,0,0,0.7017909171332021,-0.40613931490651545,-0.9868536218230273,-1.1278283271584901,3.2587758015126944,3.2588678549370593,-0.7329128423825314,-0.2150198835158209,-0.12069344767253966,-0.7249148160117646,3.2590118359341425,3.2592482637462927,139028154
0,0,0,0,0,0,0,0,0,0,0,0,0.0901372182532809,-0.5132812396623181,-0.3687306128419176,-0.5702213967110392,3.2583068797954176,3.2581656525332514,-1.0735266415508558,-0.11895466076787241,-0.145977454898054,-0.4701011026026133,3.2593253683239656,3.2590385865019065,139028962
0,0,0,0,0,0,0,0,0,0,0,0,0.713866438134484,-0.062004668951591124,-0.5457300717508878,-0.7512062968261595,3.258542520826163,3.258620412185241,0.1683704338515322,-0.20681454024488213,-0.1346930425993255,0.3120768442245536,3.259370214864041,3.2588973592397403,139029769
0,0,0,0,0,0,0,0,0,0,0,0,-0.04707509840430002,-0.19779173109432827,-0.9542958205098891,-0.4631841138820784,3.2585161636491016,3.259016556622571,0.39399613070441847,-0.12420485308228171,-0.10892477141914027,0.0889338360945983,3.2591270994099495,3.25904409397174,139030577
0,0,0,0,0,0,0,0,0,0,0,0,0.8422254970342512,-0.3433360628290251,-0.8693619810774303,-0.5453842813234664,3.25894299256122,3.2586011360408227,0.1018378379151628,-0.15772174092790375,-0.1273645672040662,0.340556364125772,3.259435124329939,3.259263212592985,139031384
0,0,0,0,0,0,0,0,0,0,0,0,0.9975058552629774,0.1371792718385782,-0.0842088203679109,-0.6183558962769384,3.258854479653177,3.258609790636276,0.11749754160613317,-0.15044991379379197,-0.1050459390933441,-0.06558019704582656,3.259351725501028,3.2590558956928124,139032191
0,0,0,0,0,0,0,0,0,0,0,0,1.587850759965272,0.8073710808004236,-0.1872004732132522,1.2523652019936087,3.258809633113102,3.2587136457817127,0.08540512149395006,-0.1362957163209577,-0.12499045431500128,0.2696551644391017,3.2593745421617673,3.259220726397124,139032999
0,0,0,0,0,0,0,0,0,0,0,0,1.7280599269938381,-0.059800107455266406,1.0352021259310393,0.3870154126900926,3.258910734523622,3.25881907448996,-0.7422118118061795,0.016863479240355403,-0.11494364916606535,0.08864823444464617,3.259254951388234,3.259469742711752,139033806
0,0,0,0,0,0,0,0,0,0,0,0,1.8080488452969605,0.6829958895439969,0.9075283536348764,0.1624011233331112,3.2587982247827316,3.258618445231729,-0.8592416118671431,-0.10270919832100849,-0.10861674649915057,0.6794781898830163,3.25917115916862,3.2591034959678047,139034613
