0,0,0,0,0,0,0,0,0,0,0,0,0.5836108426583818,1.885858772499415,-0.24074566850014548,-0.23341916005839825,3.25881907448996,3.2586711595858526,1.7289234195856356,-0.9661329467455084,0.12717534627620533,0.3642463522251072,3.2592097114574563,3.2590118359341425,131731280
0,0,0,0,0,0,0,0,0,0,0,0,1.5475766000242948,2.5738035170797726,-0.23144315856017572,0.31677983007190585,3.258601529431525,3.2585350464028173,1.7210005308390297,-0.980188403152037,-0.49030840281348265,0.27539827530363503,3.259062583334754,3.259252591044019,131732088
0,0,0,0,0,0,0,0,0,0,0,0,1.4050322657862027,1.8769445391827273,-0.3165453692132674,0.9217958476300058,3.258985085366378,3.2583725760427207,1.9332391420887876,-0.9186325929918996,-0.12036260609181,0.9467966135497824,3.259261639030175,3.259229380992577,131732896
0,0,0,0,0,0,0,0,0,0,0,0,0.42210468317326105,1.3142703430974891,-1.6480422911694397,0.5654845792632793,3.258767540307944,3.258570058175332,3.231970159050245,-2.051893252360016,3.0737787096236597,0.09420881202325963,3.259458727772084,3.2590157698411666,131733704
0,0,0,0,0,0,0,0,0,0,0,0,0.42463969285961306,1.2441732340065519,-1.9327371755525082,0.39129117623462395,3.2585027883652193,3.2586019228222276,3.1489733754364697,-0.16084211597944686,1.2461098964345332,1.9293717180933616,3.2593277286681803,3.259060616381242,131734512
0,0,0,0,0,0,0,0,0,0,0,0,-0.10487638770060392,1.4402796793317412,-0.5127387538836901,0.2409195471906122,3.2593859504921374,3.258703024232748,2.9821509339989345,0.08690984093068134,1.4390393184470316,1.623421147277492,3.259252591044019,3.2591184448144963,131735320
0,0,0,0,0,0,0,0,0,0,0,0,0.4682120404496241,1.5821934082738647,-1.1636190132640616,0.5988330958882685,3.2589311908401477,3.2587533782426568,2.604155970115181,-0.5051278239640979,0.8875126346960823,0.52616360499425,3.2591554235405233,3.259084613214089,131736128
0,0,0,0,0,0,0,0,0,0,0,0,0.4413351942700379,1.9531470719751205,0.27226963904734125,1.7168856640917853,3.2589064072258953,3.2586267064364796,2.5432492546140257,-0.2482330737391798,1.3523179116628066,1.1961052174693605,3.2593934249154835,3.2590303252971555,131736936
0,0,0,0,0,0,0,0,0,0,0,0,0.9167128463641222,1.6538951580399464,0.5228182104609264,0.7316225208786155,3.2589532207194827,3.2588123868480188,3.0093649160104885,0.06650348502439081,1.0843440990858195,1.3521837654332833,3.2588300894296274,3.2591337870518906,131737744
0,0,0,0,0,0,0,0,0,0,0,0,0.7003302574551412,1.7834135393397257,0.33568028636935787,-0.07794643377619193,3.2587372492238575,3.2585082958350533,2.2256075055131324,-0.24772363277955445,0.3939851157647509,0.9199197673701962,3.259407193590068,3.2592659663279013,131738552
0,0,0,0,0,0,0,0,0,0,0,0,1.718061508901299,1.766886409149934,-0.6223716285671745,-0.06709435785941575,3.2587435434750964,3.258782489154635,1.5785651658255058,-0.7449132257596524,0.39474042591338465,0.3701247894912707,3.2594001125574246,3.259197122954979,131739360
0,0,0,0,0,0,0,0,0,0,0,0,1.5975899335849206,1.5182796142434614,-0.32012561799593187,0.7541394179033538,3.2589662026126627,3.2589528273287804,1.766725905743349,-0.9777112218989398,0.5118469371613189,0.969542070572623,3.259007508636416,3.2589815448500565,131740168
0,0,0,0,0,0,0,0,0,0,0,0,1.8080960521812501,2.463894482123194,1.0350310009754895,1.347365516110124,3.2586302469528015,3.258723480549273,2.037656049448973,-0.7040832047561651,1.2490072189578079,0.9503937781326506,3.259149129289285,3.2592879962072363,131740976
0,0,0,0,0,0,0,0,0,0,0,0,0.5999601602506829,2.1263794215177803,0.7937955610508396,0.8041413431336096,3.2590728114930165,3.2588666747649517,1.1089062343724052,0.5631025985601661,1.1387689159833092,1.7500492870866402,3.259555108494175,3.2595405530381862,131741784
0,0,0,0,0,0,0,0,0,0,0,0,0.7059329278389129,2.0421139528887213,0.030442146115558875,0.667311795629477,3.2589846919756758,3.258936304919279,1.756260139496343,0.05004559159822364,0.8665618260576518,0.7019632222608593,3.2591798137640726,3.2588611672951178,131742592
0,0,0,0,0,0,0,0,0,0,0,0,0.7022224667337497,2.401144731181232,-0.11457897598492812,1.2142539041345004,3.2588973592397403,3.258627099827182,1.571348413389732,-1.1977173325678507,0.12024340870897873,-0.254085547218984,3.259232134727494,3.259267539890711,131743399
0,0,0,0,0,0,0,0,0,0,0,0,1.0869054659492332,2.1320513286651765,0.9167911311139024,1.1276658567983933,3.259003968120094,3.2588104198945067,1.0222178724071826,-0.9578721353855294,0.18238576440641455,0.22091051589375924,3.2590661238510754,3.259130639926271,131744631
0,0,0,0,0,0,0,0,0,0,0,0,1.0439652972180005,2.3545401280570184,0.9671671709021533,1.1127040282135041,3.258708138311879,3.258383984373091,2.0285352860135184,0.15761041135912074,1.2341425578764151,1.3508627594545792,3.259103102577102,3.258874542579,131745862
0,0,0,0,0,0,0,0,0,0,0,0,0.8668316920795073,2.6218349482816397,0.4152891892539488,0.8139379517958106,3.2588902782070965,3.2588989328025497,2.469178899428713,-0.08150425928881874,0.4800704097831738,1.3486098109018576,3.2591597508382497,3.259346218031194,131747093
0,0,0,0,0,0,0,0,0,0,0,0,1.4251549869960531,2.204603982520578,0.26232236174611584,0.40574041673426825,3.2587883900151713,3.258808059550292,1.9013371230765725,-0.7643687563382097,-0.05417147328513542,0.5640620784833524,3.259246690183483,3.25917115916862,131748325
0,0,0,0,0,0,0,0,0,0,0,0,1.0983629701570234,3.129337671916207,-1.914364649577695,0.10355341476838764,3.258363528056565,3.2587045977955578,1.5279888901697265,-0.8769489141641753,-0.19486962495680152,0.19657812077738293,3.2594040464644487,3.259179026982668,131749556
0,0,0,0,0,0,0,0,0,0,0,0,1.2016567470618185,1.712807776070568,0.41669949492210084,-0.21216740753262134,3.2591904353130383,3.258946533077542,1.6572440930895915,-1.3557573265740066,-0.39289306317485134,0.09809236503748477,3.2594189953111403,3.259115297688877,131750787
0,0,0,0,0,0,0,0,0,0,0,0,0.2876976356145901,1.547286671076616,-0.7743734686819873,-0.07862936003558159,3.2588898848163943,3.2588871310814773,1.7538396065043933,-1.5704467618998004,0.7374891564237065,1.2599509549082462,3.259029145125049,3.2591853212339066,131752019
0,0,0,0,0,0,0,0,0,0,0,0,0.9669146140712038,1.6117047919875136,-0.4303470051702267,1.1251804143405453,3.2586322139063135,3.258823008396984,3.0223830011347532,-1.3566475697335683,1.3674426039984946,0.6361131591931771,3.259433944157832,3.2593544792359443,131753250
0,0,0,0,0,0,0,0,0,0,0,0,0.07322810569144554,1.8024977090952048,0.014406360913081277,1.3535535518590869,3.259172339340727,3.258939452044898,2.8374964520330965,0.17373628303245103,1.358493358909292,1.6050155764836758,3.2590173434039764,3.2587313483633213,131754481
0,0,0,0,0,0,0,0,0,0,0,0,-0.2421524336519758,2.2817093469750103,-0.30850131613031817,0.6071580299327409,3.2587872098430646,3.2584363053365113,2.9313287891541466,0.05217540886108981,1.2806531406227517,1.4046042567019767,3.2590952347630537,3.2588890980349894,131755713
0,0,0,0,0,0,0,0,0,0,0,0,0.16513754905909886,1.6354002875566824,-0.18249748736589996,0.8810114599479985,3.2587183664701422,3.2589103411329194,2.7683989487169915,-0.415699495756566,1.0946245783119892,1.448092812072374,3.2591019224049953,3.2593552660173493,131756944
0,0,0,0,0,0,0,0,0,0,0,0,0.7245690255843431,1.9173784157488842,-0.5350290578638384,1.1553782648299056,3.258769900652158,3.2589461396868393,2.8808248973876114,-0.49310855783326124,0.8768843980889794,1.191449438506298,3.2591251324564374,3.2590118359341425,131758175
0,0,0,0,0,0,0,0,0,0,0,0,0.3719225850013,1.853721112456454,-0.09072730430690101,0.7698337399761366,3.2588592003416057,3.2587726543870748,2.2040591363977353,-1.4410058785683963,0.4216495301305687,1.0889680134019866,3.259010655762035,3.2593053053981427,131759407
0,0,0,0,0,0,0,0,0,0,0,0,0.9110291374956533,1.7026736381856964,0.6612819029428844,-0.819558324761191,3.258876509532512,3.258782489154635,2.835030285719667,-0.7811626054242379,1.0976320502319397,2.0012001396656203,3.2590444873624427,3.259572811075784,131760638
0,0,0,0,0,0,0,0,0,0,0,0,0.3665543754761666,1.1739345042627458,0.5227304843342881,0.7113400830435851,3.258643228845981,3.2587282012377026,2.7887089239011913,-0.808409632254795,1.0819440224103953,1.8814166046877627,3.259335203091526,3.2591239522843303,131761869
0,0,0,0,0,0,0,0,0,0,0,0,1.2703148329633274,1.891339098374736,0.2806425667575081,0.9974901196348809,3.259220726397124,3.2587407897401794,2.6550406640816524,-2.0121934428445627,0.47747953861707904,0.7900508749545664,3.259035045985585,3.259231347946089,131763100
0,0,0,0,0,0,0,0,0,0,0,0,0.8611452294761215,1.9550790137146727,0.14147352474612293,0.769738932816855,3.258727021065595,3.2587140391724154,1.305233765272351,-0.6902858126504198,-1.0165672083577164,1.4681423626115753,3.2591652583080837,3.2594791840886095,131764169
0,0,0,0,0,0,0,0,0,0,0,0,1.0564507313311973,1.6259274394425676,-0.8193750046938663,0.5946686619125202,3.2586998771071283,3.2585197041654235,2.8525145354884307,-0.735935656539876,-0.055785948727840026,0.4512950600737405,3.2593552660173493,3.2590197037481907,131765238
0,0,0,0,0,0,0,0,0,0,0,0,0.7537424866846187,1.580074605950666,-0.9887206540966814,0.34273535522643983,3.2590641568975633,3.2588257621319006,0.8871605500174223,-1.1900859463317328,-0.03776550743168681,0.07600269031556729,3.2593064855702503,3.2590452741438476,131766306
0,0,0,0,0,0,0,0,0,0,0,0,0.5693618380262658,1.750114983333943,-1.127207950020784,0.8737581221769002,3.2585979889152035,3.258755345196169,1.8659130771056505,-0.5600856852633578,0.20092980872748,0.8766542645280676,3.259345431249789,3.259322614589049,131767375
0,0,0,0,0,0,0,0,0,0,0,0,1.5393165754457205,1.6013798596119713,-0.7780005309582388,0.7445524864855392,3.258870608671976,3.2586247394829675,1.6216520692887386,-0.5938960425729802,0.7924710145558136,1.004997194409036,3.259459514553489,3.2590669106324803,131768443
0,0,0,0,0,0,0,0,0,0,0,0,1.0297253405720401,1.6080785164926668,-0.5020054819590428,0.7249683171472927,3.259291143332856,3.2589772175523297,2.1917464008028986,-0.3662455637747721,0.8033789519523324,-0.1717048134451882,3.259437484674154,3.2593308757937995,131769512
0,0,0,0,0,0,0,0,0,0,0,0,0.48673208793784234,2.03041018610122,0.20987944720738497,0.22854150873917445,3.2587045977955578,3.258384377763793,1.589461694891655,-1.090223323133388,0.2852629405573535,-0.29864884598837443,3.259061009771944,3.259066517241778,131770580
0,0,0,0,0,0,0,0,0,0,0,0,-0.8787266467483814,3.162699170434376,-2.0970151659268335,1.3229729322162787,3.258979971287247,3.2588127802387215,1.5526037398104358,-1.3088148008364202,-0.0808158255595953,0.139615147067922,3.2593635272221,3.2591924022665504,131771649
0,0,0,0,0,0,0,0,0,0,0,0,0.4185688875399694,1.721324684777818,-1.095281147394317,-0.13218911077846418,3.2586916159023778,3.258617658450324,1.3319485344825426,-1.3830613950564141,-0.5973393913912047,0.5039476518568577,3.2593953918689955,3.2591727327314297,131772718
0,0,0,0,0,0,0,0,0,0,0,0,0.35660631139353643,1.6570155330914893,-0.3369473978218314,0.5936678759655805,3.25867076619515,3.2584933469883612,2.465823670127829,-1.0495278417501261,-0.09534571115323437,1.5772488805352307,3.25906848419529,3.2589823316314614,131773786
0,0,0,0,0,0,0,0,0,0,0,0,0.6496324240723161,1.8836569647380073,1.0230829385617897,1.1006741405337024,3.258843858104212,3.25911411751677,2.9120778217408443,-1.5903145659344868,-0.262591834377269,2.8284693155848166,3.2591263126285446,3.259029538515751,131774855
0,0,0,0,0,0,0,0,0,0,0,0,0.7350375455662662,2.1635430411747745,1.1336886684523424,1.4736388175056954,3.2589174221655632,3.258587367366238,2.558205575729081,-1.09699475729403,0.48055782086346394,0.5890297995841264,3.2593926381340785,3.2593363832636335,131775923
0,0,0,0,0,0,0,0,0,0,0,0,0.5291278039369349,1.5334149281281146,0.10777685734949795,1.0434959821100214,3.2588399241971877,3.258553929156533,2.030998305201328,-1.3714477147397652,-0.04842285495076835,0.47308811820603824,3.2592427562764588,3.2589634488777453,131776992
0,0,0,0,0,0,0,0,0,0,0,0,0.6690364204688573,1.6048912650217133,-0.898387920664301,1.031538084928761,3.258699090325724,3.258936304919279,2.0313059367306154,-1.016113628877834,0.12145033138398306,0.7123967304702675,3.259080679307065,3.259156997103333,131778060
0,0,0,0,0,0,0,0,0,0,0,0,0.5446155958909507,1.5530529919925917,-0.18829449275666388,1.1035490397869394,3.2590090821992255,3.25879468426641,2.3091160904307473,-0.5287426744392723,0.6545179432055882,1.0210207844997388,3.2594288300787007,3.259354085845242,131779129
0,0,0,0,0,0,0,0,0,0,0,0,0.3205902124154821,2.496597444605522,-0.35099931371203824,1.171623333886067,3.2589437793426246,3.25887296901619,2.431946043008094,-0.9159358997268557,0.49732688633524014,0.7437125973358866,3.2593599867057783,3.25905864942773,131780197
0,0,0,0,0,0,0,0,0,0,0,0,1.5476127919689169,1.467988940237634,-0.7851220828440287,2.949311464942868,3.2584882329092304,3.258710498656094,2.3506589353870075,-0.6752571076461205,1.017667522152367,1.1582940767161936,3.259121985330818,3.2589858721477833,131781005
0,0,0,0,0,0,0,0,0,0,0,0,-0.048032217983271834,2.7527148548024716,0.41629902318704404,1.9583834956149453,3.2590488146601695,3.2588021586897558,2.8553803867555123,-0.07293384944604032,1.5384849475008187,2.104596591543745,3.2590193103574885,3.2592400025415422,131781813
0,0,0,0,0,0,0,0,0,0,0,0,0.9453139239923863,1.9909900773751827,0.7927082291493689,1.554049450641805,3.259033079032073,3.258761246056705,3.184999702572787,0.28096711408699915,1.0829916218509223,1.8645826297500883,3.259174699684942,3.259286422644427,131782621
0,0,0,0,0,0,0,0,0,0,0,0,0.5162155409116197,2.2326696554028578,0.4271298560058899,1.6384380505607186,3.258386344717305,3.2582860300881897,2.895023548009818,-1.3544264858277424,0.30855481726584644,1.4542324607649397,3.259368247910529,3.259309239305167,131783429
0,0,0,0,0,0,0,0,0,0,0,0,0.850015813114144,1.9643909650315003,0.3296354448360735,0.8925523629847005,3.259261639030175,3.259227414039065,1.1895277249250085,0.13384174511930289,0.9479649839359502,1.3610991789220785,3.2588910649885015,3.25905550230211,131784237
0,0,0,0,0,0,0,0,0,0,0,0,0.9099280369195981,1.9860597117018355,0.3281460676367363,0.6285238657622176,3.2589205692911825,3.2588186810992577,0.6785741780488703,-0.5851356250209361,0.5730793801640726,0.39167866607650115,3.259311993040084,3.2593041252260355,131785045
0,0,0,0,0,0,0,0,0,0,0,0,0.9794865941389315,1.900338304083145,0.8246035605196428,0.726116231216935,3.258817107536448,3.2589457462961366,1.3415995885848508,-0.7548549955910439,0.1069330342928212,0.3920932998768448,3.2592793416117836,3.2592242669134457,131785853
0,0,0,0,0,0,0,0,0,0,0,0,1.218091430436543,1.983486149726647,0.24126376405522393,-0.2975249287515793,3.258867068155654,3.2590031813386893,1.0738909213412906,-0.7338825504639804,0.0757092208515669,-0.2359565300889647,3.258913094867837,3.2588808368302384,131786661
0,0,0,0,0,0,0,0,0,0,0,0,1.322995355486316,1.9445294552480523,0.3819568016477587,0.0295566236444263,3.258680994353413,3.258679420790603,0.9422147920387735,-1.2673057874805673,-0.4127152338880579,-0.008379615352107924,3.2594060134179608,3.259506328047076,131787469
0,0,0,0,0,0,0,0,0,0,0,0,1.2630378917500844,2.0423051407700945,0.2741252629906253,1.3874953016633154,3.2587462972100134,3.2583383510516106,1.2690870605810953,-1.5275242957501765,0.04119430079392204,0.24868704660976487,3.259177060029156,3.259324581542561,131788277
0,0,0,0,0,0,0,0,0,0,0,0,1.0201985979316948,1.6171044727688397,-0.5112914694895112,2.5964341040175083,3.258790750359386,3.2589347313564696,1.7063982613561464,-0.6789616678907475,0.45180135390774656,0.8382491038142567,3.259156210321928,3.258963055487043,131789085
0,0,0,0,0,0,0,0,0,0,0,0,1.1907086838136534,1.4934192888044464,0.6789628480628548,0.8211491967617507,3.258898146021145,3.258889491425692,2.235046128636137,-1.0607847166996855,-0.5689444504910052,0.4015205146694797,3.259522457065875,3.259297044193392,131789893
0,0,0,0,0,0,0,0,0,0,0,0,0.4180539391105102,2.05033227805284,0.10792398547220056,0.7555217928316346,3.2590169500132737,3.258893425332716,1.5438118510021983,-1.5499762833090165,-0.9002317428865126,0.3410496760665984,3.2593934249154835,3.259472889837371,131790701
0,0,0,0,0,0,0,0,0,0,0,0,1.060430271676811,2.0539392774032685,0.013227762368650718,1.3349705618584824,3.258765179963729,3.2588363836808663,1.9807418561866112,-0.4288045202260637,0.846767192693614,0.48684263072522055,3.259552748149961,3.2592400025415422,131791509
0,0,0,0,0,0,0,0,0,0,0,0,1.4544893448936158,1.601972306009806,0.18500141918676127,1.1061753161162515,3.258852512699665,3.258937485091386,2.5985013721586907,0.1981650588709186,0.875110206021095,1.3994071721323933,3.259114510907472,3.2588698218905714,131792317
0,0,0,0,0,0,0,0,0,0,0,0,0.41583521554889863,1.607055700666392,0.10068480976638909,0.9000830412010002,3.2592518042626146,3.2586318205156113,3.1000493407308265,-0.3136791245554834,1.0191545390074896,1.321187331818024,3.2592659663279013,3.2591211985494133,131793125
0,0,0,0,0,0,0,0,0,0,0,0,0.4796990489600955,1.7330119291558181,0.1871009453655416,0.7648907858003122,3.258614511324705,3.258452827746013,2.988785074804434,-0.21709619964315888,1.2027275565537876,1.5346840065341003,3.259370608254743,3.258992559789724,131794351
0,0,0,0,0,0,0,0,0,0,0,0,0.10045231586126278,1.8835157374758407,0.20992311357535284,0.46840165476818735,3.2587455104286085,3.2586007426501205,2.7539504949987523,-0.1501135647432285,0.9959960217471148,1.639252762705417,3.2593619536592904,3.2591282795820566,131795577
0,0,0,0,0,0,0,0,0,0,0,0,0.16452267939122667,1.8022073867568238,-0.48739888517843305,0.5369901105153693,3.258839137415783,3.259023637655215,2.612113870634302,-0.28356900019276143,1.0529003802419161,1.6662252028256894,3.259033472422775,3.2591377209589147,131796803
0,0,0,0,0,0,0,0,0,0,0,0,1.2145013468863186,1.2829473951992267,0.16767295213615324,1.6924659362394734,3.258843464713509,3.2586483429251123,2.4606698585355113,0.3034962062235124,1.0811297036563996,1.744774311157979,3.2593497585475157,3.259459514553489,131798028
0,0,0,0,0,0,0,0,0,0,0,0,0.19643020587327548,1.5989671944340698,1.2791539286558542,0.8091236363796753,3.258845825057724,3.2589166353841583,2.7647608715010725,0.43093079697260817,0.8143773692104064,1.4001915931930058,3.259260065467365,3.2590173434039764,131799254
0,0,0,0,0,0,0,0,0,0,0,0,0.9719205107594144,2.1996999740242926,0.7673719009604336,1.5375809356666725,3.2589540075008876,3.25906848419529,2.5578082511196434,0.047975176331421884,1.2003471494134843,1.346985894082295,3.2591078232655315,3.258922929635397,131800480
0,0,0,0,0,0,0,0,0,0,0,0,1.2694300972735997,1.9419830372313305,0.4225669172485968,0.9653024989727138,3.258883590565156,3.2586986969350216,2.8256034643177346,0.37334429899982197,1.7491684853039366,1.4927056780702683,3.2592053841597295,3.2595082950005883,131801705
0,0,0,0,0,0,0,0,0,0,0,0,1.1188574455806548,1.8075641879515871,-0.13417101313722288,1.0396859931571474,3.25881750092715,3.25890876757011,1.9349802893376695,0.3155119318380274,0.5708893741237371,-0.10342359583659122,3.2591129373446623,3.2591168712516865,131802931
0,0,0,0,0,0,0,0,0,0,0,0,0.8979461429054907,1.5776690218054081,-0.16991921304693378,1.0105038774614188,3.2589418123891125,3.2588277290854126,1.9889767037602308,-1.0202985191701075,0.40668219407584594,0.6819254734427301,3.2589709233010913,3.258780128810421,131804157
0,0,0,0,0,0,0,0,0,0,0,0,0.8471676644286709,1.6352020186426661,-0.5751796931242577,0.7587719868149742,3.2588694284998687,3.2583383510516106,1.5875061497099576,-2.0119286909018386,0.07811991907595622,0.14570680209479356,3.259217185880802,3.25922820082047,131805382
0,0,0,0,0,0,0,0,0,0,0,0,1.1688479624805406,1.760800261592896,-0.7741279928836814,0.887014602066827,3.258647556143708,3.2588017652990535,0.9095102559936351,-1.7208703185165306,-0.014422489931880226,0.31809768892499074,3.259033079032073,3.258896572458335,131806608
0,0,0,0,0,0,0,0,0,0,0,0,1.1397390174554607,1.7316641726093498,-0.1658877451286012,1.4778296086585054,3.258930404058743,3.2588454316670212,1.2629729822841862,-1.539224915412058,-0.29359023494604053,0.21373192235611943,3.2595629763082234,3.259351332110325,131807834
0,0,0,0,0,0,0,0,0,0,0,0,1.5224589970659013,1.4409185458324605,-0.238817267276915,0.7366079612503005,3.258905620444491,3.2585732053009515,1.0519995155333894,-1.5390596913170445,0.209270478400049,0.06350348752778619,3.258981151459354,3.2590173434039764,131809059
0,0,0,0,0,0,0,0,0,0,0,0,1.472836300472772,0.5477336105982793,1.6359179897210585,-2.4985368607684206,3.259038193111204,3.2587348888796432,1.4722997155546802,-1.5061132199899219,-0.2409104992044567,0.31853435260466967,3.2594477128324164,3.259221119787826,131810285
0,0,0,0,0,0,0,0,0,0,0,0,0.9496435820631483,2.1694694721066323,-0.01661721666064461,-0.014727367726250615,3.258843858104212,3.2589917730083195,1.6138409035016184,-1.6024396541642731,0.0347950142377632,0.375456807071782,3.259531111661328,3.259366674347719,131811511
0,0,0,0,0,0,0,0,0,0,0,0,0.7864607914043417,2.0836225728538715,0.09355106276882443,1.8463788683866105,3.2587738345591823,3.258810026503804,1.9054401881027445,-1.7183077714810098,-0.25299467480119164,1.0753236502794803,3.258909554351515,3.259031505469263,131812736
0,0,0,0,0,0,0,0,0,0,0,0,0.15267965229507113,1.6728137103097092,-0.8718564715214338,0.4213466192897104,3.258969743128984,3.2588501523554507,2.023605707121576,-1.2942951434010437,-0.6316407002974391,2.6225839641790345,3.2591392945217246,3.2593269418867754,131813811
0,0,0,0,0,0,0,0,0,0,0,0,0.26040222172763605,1.329641298012888,-0.6717590775202604,0.3418140342013876,3.2586137245433,3.258599562478013,0.8588454674298128,0.7087114463700588,0.26678931317202004,1.229535952751154,3.2592317413367917,3.2591027091863998,131814885
0,0,0,0,0,0,0,0,0,0,0,0,0.7067625888303027,1.2130493418037105,-0.5261600644779282,0.6136953966254469,3.2588922451606086,3.2588568399973914,2.521543135826961,-0.6929954878086433,0.5956938380830095,1.07457542116349,3.2589213560725874,3.2589917730083195,131815959
0,0,0,0,0,0,0,0,0,0,0,0,1.6729879823908784,0.9233961610074235,-0.9054894096242677,0.6308216608550145,3.258822615006282,3.258617658450324,2.3665550668901285,-0.3659497339665573,1.03342872064456,1.4549067324288762,3.2593383502171456,3.259619231178669,131817033
0,0,0,0,0,0,0,0,0,0,0,0,0.9164949079149851,1.3131322637954073,-1.0177753112048282,0.9189768098565113,3.258800978517649,3.258754558414764,2.5417744328706777,-0.3464796479320106,0.9886726604309869,0.8173517963113542,3.259263212592985,3.2594201754832475,131818107
0,0,0,0,0,0,0,0,0,0,0,0,0.9108776820752241,1.645580058763034,1.2756299347436348,1.818707372988149,3.2589842985849735,3.258686895213949,1.8862289531503857,-0.8953041309480824,0.32934472910699,0.623665490587412,3.259326548496073,3.2591837476710968,131819181
0,0,0,0,0,0,0,0,0,0,0,0,0.6606965375776931,1.8228454497868358,0.6802995896696554,1.1714270319255629,3.2590472410973597,3.2588674615463566,1.2115560306973494,-0.9343737285582696,0.5052875405892777,0.8355252665907462,3.2592514108719124,3.2592958640212846,131820255
0,0,0,0,0,0,0,0,0,0,0,0,2.0221450474435145,2.0367532177869343,-0.08460181767962188,-0.8052054649836379,3.258701057279236,3.2585696647846296,1.857992548703259,-0.7531512204588914,0.6940623633935884,1.0369767113896264,3.259291536723558,3.2595476340708296,131821329
0,0,0,0,0,0,0,0,0,0,0,0,1.3762018413784314,2.02413285066281,0.61883701310599,1.34891665564974,3.25896580922196,3.2588371704622707,2.129369190856122,-0.5731490103183997,0.38366569085904245,1.2878116712345684,3.259117658033092,3.259141654865939,131822403
0,0,0,0,0,0,0,0,0,0,0,0,0.6575022050740963,2.1817385413335013,0.4718481507120312,1.073475500759542,3.2587667535265386,3.2583965728755677,1.7382255361349028,-0.6412111093057524,0.93037373189613,0.8326924601426673,3.259244723229971,3.2591526698056064,131823477
0,0,0,0,0,0,0,0,0,0,0,0,0.9032226923969616,1.934619156672854,0.7069765933724157,0.9774787279938134,3.258662504990399,3.2590397666740136,2.3136491314946572,-2.1913951029056435,-0.12146291988646028,0.951924461355741,3.2591459821636652,3.2587427566936915,131824551
0,0,0,0,0,0,0,0,0,0,0,0,0.9570397206592226,1.8962163563032575,0.10916710009182691,0.431671945055955,3.2592510174812097,3.258875329360405,1.7367880865082843,-0.6102544081514367,0.28387309120572696,0.7903112995995639,3.259433944157832,3.2593651007849096,131825625
0,0,0,0,0,0,0,0,0,0,0,0,0.9015149833577851,2.0277536186878224,0.12037991528271617,0.5417005707860674,3.258708925093284,3.2585673044404153,1.5962343092244038,-0.5651195126914397,0.9267686994992136,0.735567442842417,3.2592573117324486,3.259147555726475,131826699
0,0,0,0,0,0,0,0,0,0,0,0,0.5169106622827842,1.6083877215847637,0.19750455588156648,0.8969650264936717,3.2591243456750325,3.2590326856413703,1.795256173045179,-0.29797142719881853,1.0135428206375623,0.6373287364636345,3.2592978309747966,3.259127492800652,131827773
0,0,0,0,0,0,0,0,0,0,0,0,1.255134672538599,1.55879688963853,-0.10510534108940851,0.6690757595390986,3.258893425332716,3.2590956281537564,2.2276421222260145,-0.5191313527979079,1.2648069697388373,1.2734458295638358,3.2594823312142287,3.25963575358817,131828847
0,0,0,0,0,0,0,0,0,0,0,0,1.5329519072713742,1.6387177513501348,0.11464073832520703,0.8404729414549995,3.258868641718464,3.258557469672855,2.3264638336257737,-0.3643934803478098,1.2539320771613212,1.2822636821584321,3.2593060921795476,3.258814353801531,131829921
0,0,0,0,0,0,0,0,0,0,0,0,1.0566879459247525,2.4289790903304924,-0.1961158867020472,2.4969184514186917,3.2590763520093384,3.258961481924233,1.858816702224815,-0.5590081881294475,0.3259328515449585,0.2807952023500445,3.2589473198589465,3.2591625045731667,131830730
0,0,0,0,0,0,0,0,0,0,0,0,1.8258076817760087,2.0617661788184853,-0.3400693464361842,1.320375766798945,3.2585936616174767,3.2586971233722117,1.4234952716225708,-1.4141534226123598,0.25509026707294785,0.5926135888831126,3.259502394140052,3.2591719459500244,131831538
0,0,0,0,0,0,0,0,0,0,0,0,1.8744996159672278,1.8582911322463909,-0.6703841770153256,0.42487061320192965,3.2588493655740454,3.2588426779321047,2.3444815211870096,-0.8158065576322743,0.857924539795463,1.5621387436555318,3.25905550230211,3.259180600545478,131832346
0,0,0,0,0,0,0,0,0,0,0,0,0.265806229806689,1.8833890656696635,-0.26989827989319326,0.3520984473345813,3.258642442064576,3.2587262342841905,2.337270669611772,-0.4368568345137637,1.5378854200703405,1.1254581481764492,3.2591833542803945,3.259343464296277,131833154
0,0,0,0,0,0,0,0,0,0,0,0,-0.20767291875754817,1.6536823336699407,-0.17184446714454496,0.16142040031199456,3.258837563852973,3.258700270497831,1.9580978939649931,0.7506819070198425,0.7792770837875703,1.4103332055012232,3.2593470048125983,3.2593934249154835,131833962
0,0,0,0,0,0,0,0,0,0,0,0,0.21619533493463217,1.345230191377424,-0.558051461941178,0.030280462536866965,3.2590153764504644,3.2588426779321047,2.3460078771123736,0.009802902913439621,1.0509062827713824,1.5715993966578716,3.259259672076663,3.259099168670078,131834770
0,0,0,0,0,0,0,0,0,0,0,0,0.029591635416941094,1.860055489546715,0.10071077355274839,0.19507851541978305,3.2588383506343783,3.2589878391012954,2.780021677019796,0.8939292304431474,1.507028640154438,2.1980335710088696,3.2592462967927807,3.2592022370341107,131835578
0,0,0,0,0,0,0,0,0,0,0,0,0.6937960378880546,1.448609727455345,-0.14774889323102153,0.4174237272052439,3.2592938970677725,3.258699090325724,3.1159450788432452,0.8399749088257442,1.7224596169542807,1.5107689989529844,3.2590232442645126,3.259290356551451,131836386
0,0,0,0,0,0,0,0,0,0,0,0,0.8415189673327168,1.468693896376359,0.24060640819149112,1.1240600376200722,3.2588218282248764,3.2588556598252842,2.243042974834797,0.25326257386953516,0.7912463892992007,0.6046989446519547,3.2595027875307543,3.259252197653317,131837194
0,0,0,0,0,0,0,0,0,0,0,0,1.1901874411329556,0.7901527631464914,-0.13246802478647526,1.203879011139752,3.258558649844962,3.2586597512554825,2.2229930309048926,-0.7101355207127953,0.6933011523844185,0.8212377096697937,3.259120018377306,3.2589500735938635,131838002
0,0,0,0,0,0,0,0,0,0,0,0,1.09023669841727,0.4412584830830673,0.6201969647642331,0.5056612617565706,3.259136147396105,3.258756918758978,2.3887120114221587,-0.5860589129995003,1.4703756416291762,1.277803418374469,3.2588572333880936,3.2592765878768666,131838810
0,0,0,0,0,0,0,0,0,0,0,0,0.591375194951915,0.46093234550146406,-1.4755058497793494,0.40830257037908674,3.258878476486024,3.2589103411329194,2.5110455049330596,-0.4037699227058795,1.6950863117082489,1.2307495630680994,3.2592758010954617,3.2591975163456812,131839618
0,0,0,0,0,0,0,0,0,0,0,0,0.5339263837249736,0.9372151896018015,-2.44093502055824,0.6335671345671575,3.258723480549273,3.2587923239221954,2.3181471607860518,-1.0624507263244063,0.9504394114541305,0.7314801134443417,3.2594245027809743,3.2593792628501967,131840426
0,0,0,0,0,0,0,0,0,0,0,0,0.7033153061050541,1.8646522599044155,-0.5904700029456619,0.6987374185010693,3.2593375634357407,3.2591967295642768,1.1408940125577465,-1.1299848949891202,0.9239272384556816,-0.8623423173835656,3.2590617965533486,3.259321827807644,131841234
0,0,0,0,0,0,0,0,0,0,0,0,0.873377319976964,1.94953810567118,1.3252872497185764,0.8182786248062401,3.258990986226914,3.25894456612403,1.3135933176986356,-1.7389340327899494,0.8190512441457801,0.13064465888078913,3.2595122289076124,3.2594307970322127,131842042
0,0,0,0,0,0,0,0,0,0,0,0,0.8305520213308359,2.255882853970868,1.8077998289823327,1.2689304910815347,3.2586802075720076,3.2585877607569405,1.390347777646515,-0.96320730009166,0.7366768046232228,0.5155452031547073,3.2595429133824005,3.2592982243654993,131842850
0,0,0,0,0,0,0,0,0,0,0,0,1.292447387271808,1.857370204612041,0.7255525023403766,0.512682499013245,3.2590932678095417,3.259016163231869,1.0097296845590693,-1.015076650986272,1.1783172700783335,0.5897363292856609,3.2589528273287804,3.258767540307944,131844070
0,0,0,0,0,0,0,0,0,0,0,0,1.06353687805377,1.4030920628418995,-0.28947694176160593,0.4289245043902998,3.258983118412866,3.258745903819311,1.3967450972491617,-0.8536460225160148,0.8084477911529292,0.6012835265736016,3.2591082166562337,3.2591975163456812,131845290
0,0,0,0,0,0,0,0,0,0,0,0,0.6753991216896917,1.3264674218258166,-0.23847541075651774,0.4210051561600156,3.2587053845769622,3.2585173438212087,1.9484783111188781,-0.3210024858716113,0.8941990964650031,0.7351414007117033,3.2593355964822286,3.2593477915940037,131846510
0,0,0,0,0,0,0,0,0,0,0,0,0.8856845481019673,2.0153905290830765,1.2636921004881976,0.8416708161438483,3.259067697413885,3.2590657304603727,1.9538894002305744,-0.972629007414461,0.7612357927841893,0.9911400069165238,3.259353299063837,3.259018523576083,131847730
0,0,0,0,0,0,0,0,0,0,0,0,0.23705645049291257,2.4253063947327607,1.2895917641629893,1.0728468624170853,3.2590653370696705,3.258752591461252,2.0113586677740414,-0.8078683266482742,0.7405363608046008,0.9629220918324103,3.2592384289787324,3.2594783973072046,131848950
0,0,0,0,0,0,0,0,0,0,0,0,1.525984171150228,1.7834808091498386,0.057956678623757196,1.4760994763492912,3.2587777684662065,3.258900506365359,1.657742125718847,-1.340624373033568,0.34862323386946126,0.502683294139301,3.2592124651923733,3.259292716895666,131850170
0,0,0,0,0,0,0,0,0,0,0,0,0.7281901870000586,1.6661012847544292,-0.23523859205706024,0.652810627557114,3.2588595937323084,3.258879263267429,1.4350188654683667,-1.0422457864577515,0.675844833355526,0.5241093187462471,3.259445352488202,3.2592097114574563,131851390
0,0,0,0,0,0,0,0,0,0,0,0,0.6811213828469971,1.6440407209444905,0.3650032359365506,0.6527331295887385,3.2589783977244373,3.2588383506343783,2.3086994896768913,0.2058070666560014,0.21489439188175102,0.7325552502340377,3.25967155214209,3.2593572329708613,131852610
0,0,0,0,0,0,0,0,0,0,0,0,1.2005587936113826,1.7231803087211022,0.5413079668650588,0.6110765947194807,3.258922929635397,3.2587466906007156,1.885678206167007,-0.18481967268224628,0.8414048840290169,1.0891706096137297,3.258898539411847,3.2591078232655315,131853830
0,0,0,0,0,0,0,0,0,0,0,0,0.6353849930030099,1.2028243306665813,0.5745734780518386,0.8150484937487237,3.258837563852973,3.2587761949033967,2.1891146170037525,-0.378997716784205,1.1807311154283422,1.2051347142618554,3.259399719166722,3.2590338658134774,131855050
0,0,0,0,0,0,0,0,0,0,0,0,0.7493396579432079,1.4254563242741016,-0.889978801009512,0.8354674381574915,3.259030718687858,3.258848972183343,1.916855992896079,-0.6675793013071181,1.4256081730852332,0.9009398461508568,3.2594835113863363,3.259387130664245,131856270
0,0,0,0,0,0,0,0,0,0,0,0,0.458811182834051,1.181459675009212,-0.2319352903288949,0.55120567693778,3.25902285087381,3.259020883920298,2.1764714332188886,-0.6412433673433503,1.721471026119116,1.2781098697316489,3.259117264642389,3.2591270994099495,131857490
0,0,0,0,0,0,0,0,0,0,0,0,0.4061967499490678,1.3625999644517857,0.6077453622514442,1.8617919161071677,3.2585248182445543,3.2588635276393325,2.176988741992562,-0.3035398725914803,1.5448681050381783,1.0427143147843259,3.2592195462250166,3.259195156001467,131858710
0,0,0,0,0,0,0,0,0,0,0,0,1.0693999730825392,2.254507953465933,0.4190979980347154,2.568132003323078,3.2591082166562337,3.258736462442453,2.42936343304675,-0.009403611350490015,2.0341344158809678,0.8285760198326134,3.2595193099402557,3.259588940094583,131859930
0,0,0,0,0,0,0,0,0,0,0,0,0.4259241135029928,2.6855351311606324,0.05590632628277853,0.9986580966303463,3.258949680203161,3.258904833663086,1.6358400983619805,0.0233465580161283,1.5653535324756542,0.5812229610947324,3.2591518830242014,3.25894299256122,131861150
0,0,0,0,0,0,0,0,0,0,0,0,0.8888194786094997,1.4126817479946312,0.21292901193249367,0.5283882294163977,3.258573992082356,3.258784062717445,1.8967234369186683,0.5477222022679094,1.763934798709726,1.1568818040945295,3.2596046757226795,3.259136147396105,131862369
0,0,0,0,0,0,0,0,0,0,0,0,0.24412292768036456,2.0012355448288375,-0.15472449716621603,0.9219594981622097,3.2590413402368235,3.258882017002346,2.0247571617075395,0.5072698363387389,1.9013855101329695,-0.014110924495568812,3.2592777680489737,3.2591924022665504,131863449
0,0,0,0,0,0,0,0,0,0,0,0,0.7215159203429127,1.6807177163025993,-0.3037129645005422,0.7336465160425324,3.2586302469528015,3.2586215923573483,2.407707274878892,-0.18336924116244807,1.9750050395733165,1.1374502703488194,3.2590102623713326,3.2590193103574885,131864529
0,0,0,0,0,0,0,0,0,0,0,0,0.8380634234027174,1.8696384870575056,-0.06406446266942771,0.7771508070410259,3.2588627408579276,3.258809633113102,2.1188243530779305,-0.055909866799100254,2.0959589118908535,1.5970663305600081,3.2587923239221954,3.2592384289787324,131865609
0,0,0,0,0,0,0,0,0,0,0,0,1.0862280471596772,1.8238843946319094,0.4053729898182141,1.3989709018434169,3.259271080407033,3.2590193103574885,1.5048783665750463,-0.15476344284575497,1.7359328551212376,0.457673103531969,3.2593336295287165,3.25946620219543,131866688
0,0,0,0,0,0,0,0,0,0,0,0,1.7054399616050675,1.8449441724949087,0.884584234307317,1.9500845253568322,3.2588658879835473,3.2589858721477833,0.5119881644234854,-1.3171318670668444,0.7214639927701941,0.07097082984099744,3.259321041026239,3.2589256833703137,131867768
0,0,0,0,0,0,0,0,0,0,0,0,1.4591411899496542,1.5982496497928678,0.8380988285659347,0.9598119449391298,3.258787603233767,3.2589193891190753,1.0361659331519524,-1.4917151202815913,0.4794874047621971,0.2706303799903846,3.2593084525237623,3.259345431249789,131868848
0,0,0,0,0,0,0,0,0,0,0,0,1.2868171795388674,2.0800092792522045,0.03253891855942232,0.5008799911594379,3.258811993457316,3.259092087637435,1.7419415047098998,-0.5756470412787248,1.7555960959906691,1.0168339272539528,3.2593953918689955,3.25918099393618,131869928
0,0,0,0,0,0,0,0,0,0,0,0,2.0795466517861665,0.9025507810772396,-0.592104934704892,1.86481433687381,3.258820254662067,3.258489413081337,2.8040240173368476,-0.13695464574750016,1.7853509885491117,1.4866388066576488,3.2594068001993657,3.2589846919756758,131871007
0,0,0,0,0,0,0,0,0,0,0,0,0.936906377900407,1.6904108632100656,0.04871750458687599,1.5037347798031306,3.2588277290854126,3.258754951805466,2.51256477982578,-0.2704372251554996,1.9954802388525295,1.6197016381861733,3.2592451166206735,3.259134573833295,131872087
0,0,0,0,0,0,0,0,0,0,0,0,0.604597449850732,1.7788140152471084,-0.05883275971803185,1.1890501486122786,3.2587179730794396,3.258620412185241,2.840811948873037,0.2657070953496808,1.3959803457236701,0.5863614304496563,3.2590519617857883,3.2593289088402875,131873167
0,0,0,0,0,0,0,0,0,0,0,0,0.5983586667011579,1.7869406803775645,-0.7642058925874105,0.6568802543735807,3.2592537712161267,3.2587203334236543,2.8985691784106704,-0.6149333971659419,2.0481450257474214,1.922679748854607,3.2590527485671936,3.2590728114930165,131874247
0,0,0,0,0,0,0,0,0,0,0,0,0.345269578131387,1.5675879916653623,0.1292760526270929,0.35104888094054226,3.258940632217006,3.2590149830597617,3.2582710812414977,-0.7511653841931085,2.3800090289126667,1.8009265066297657,3.2594823312142287,3.2590952347630537,131875326
0,0,0,0,0,0,0,0,0,0,0,0,0.9752131909386146,1.6567665167768617,0.01168291708027328,-0.14395424651554184,3.2587167929073324,3.258620018794539,2.515064384348915,0.24734401075172552,1.9388127015605807,1.1208849812608934,3.259167618652298,3.2593698214733386,131876406
0,0,0,0,0,0,0,0,0,0,0,0,0.5437194518708529,1.2765721054759152,0.4342010538817708,0.9121699705326521,3.258940238826303,3.258911127914325,2.246328967372056,-0.22146834390978143,1.3513478101906549,0.805929697266781,3.2594685625396442,3.259219152834314,131877486
0,0,0,0,0,0,0,0,0,0,0,0,0.373278602752519,1.2239199070835003,0.25367209359074755,1.0680950961226339,3.2589237164168017,3.258900506365359,1.8671243270783813,-0.6250655680973014,1.1955017561318584,0.371624788239573,3.2595818590619396,3.2591518830242014,131878566
0,0,0,0,0,0,0,0,0,0,0,0,1.013798524594131,1.2207247877984986,0.021328857103449953,0.4859299642956214,3.258881230220941,3.2585531423751286,1.4995038627986743,-1.0014480234918623,1.2469611939145555,0.6121576323697129,3.259163684745274,3.25928366890951,131879645
0,0,0,0,0,0,0,0,0,0,0,0,1.2838990073083647,0.731088296304738,-0.19464814599134275,1.4075786838029245,3.258968562956877,3.258780522201123,1.4384826706031166,-0.9902033436540774,1.5003480792460535,0.8039045219307568,3.2594591211627866,3.2589858721477833,131880640
0,0,0,0,0,0,0,0,0,0,0,0,-0.052472418841411926,1.7520898046600584,-0.1412260819943049,1.0757540197079205,3.2589957069153437,3.258666045506721,1.7961747403353143,-0.9787360046787267,1.5010530353847784,0.9590766977163193,3.259230561164684,3.25901144254344,131881634
0,0,0,0,0,0,0,0,0,0,0,0,0.9913567651935535,1.887476395067739,-0.3785512183369658,1.2923753967732663,3.258907587398003,3.2586782406184955,2.6222940352313557,0.10442438178353092,2.5509703339302936,1.0282308492935717,3.2590574692556222,3.2591373275682125,131882629
0,0,0,0,0,0,0,0,0,0,0,0,1.1040041928296318,1.8491636811689949,0.2439447216921713,1.2792227720287765,3.2587435434750964,3.2588717888440835,2.0586056779152964,0.09034925584188172,0.9392604278636488,1.8681589446257285,3.2596636843280415,3.2595165562053388,131883623
0,0,0,0,0,0,0,0,0,0,0,0,1.3092034708504043,1.753075248369604,-0.11932326785603378,1.2700618827416756,3.2590720247116116,3.2589044402723832,1.2362468047436244,-2.1432755521864357,2.440804808235742,0.3179143688576661,3.2592604588580674,3.259359593315076,131884617
0,0,0,0,0,0,0,0,0,0,0,0,1.4960589404176403,1.6575131723300423,0.07870843156676668,1.5069778927538267,3.258843858104212,3.2586082170734665,1.1266804130888477,-1.1753931969872948,1.344255762607546,0.6506040991072772,3.2592459034020784,3.2591227721122227,131885612
0,0,0,0,0,0,0,0,0,0,0,0,1.212218894030916,1.9480617103650224,0.040122704520547926,1.5970466610248875,3.259058256037027,3.258873362406893,1.319726672139963,-0.5094846259933264,1.613694168769618,0.5134303347385328,3.2597360682172853,3.2594154547948184,131886606
0,0,0,0,0,0,0,0,0,0,0,0,1.0169228335526983,2.0597685408316306,0.4765810342527669,1.0184295199429416,3.2590842198233867,3.2584827254393964,2.012319327869335,-0.007896924960246677,1.8065138347761434,0.9580298850571971,3.259298617756202,3.2591613244010595,131887600
0,0,0,0,0,0,0,0,0,0,0,0,1.2583132694140995,1.825010278822217,0.7487688480340061,1.192490743695586,3.2586912225116755,3.2588056992060777,1.6146359461111957,-0.1566434570125886,1.5610832764009566,0.7834733824102142,3.259204203987623,3.2590322922506676,131888595
0,0,0,0,0,0,0,0,0,0,0,0,1.367939849846345,1.8243808536983555,0.40009368659182626,0.5156522054257638,3.259059042818432,3.2586027096036325,1.1415792991613505,-1.0208689356886071,0.5371722504105866,0.6062571652242141,3.259730954138154,3.2593694280826364,131889589
0,0,0,0,0,0,0,0,0,0,0,0,1.719182279012475,0.44425218632843333,2.091509269655856,-1.1233409194160604,3.2588501523554507,3.258638901548254,1.1131705895865667,-1.1483157215494777,0.7220729615775301,0.3154434818558075,3.2592215131785287,3.2590279649529412,131890584
0,0,0,0,0,0,0,0,0,0,0,0,0.7843966703887785,1.2818569161721367,1.3144642847137789,1.259965903754938,3.258717579688737,3.2589414189984103,1.206333375732109,-1.046547513788642,0.8554505056679851,0.520014514924826,3.2593717884268507,3.2593772958966847,131891578
0,0,0,0,0,0,0,0,0,0,0,0,0.3978293297087347,2.0197119259490877,1.6264085562716193,0.8575862237913875,3.2586353610319327,3.258946533077542,2.193922244777947,-0.9447812729813185,1.0852339488546787,0.4789681290350114,3.259149129289285,3.2594878386840627,131892572
0,0,0,0,0,0,0,0,0,0,0,0,0.988286350761217,1.5640557365483923,-0.01981115577353904,0.9171125313177741,3.2591589640568452,3.258435518555107,1.7628242567568129,-1.9008650542336765,1.2269128235474616,-0.005923677196941041,3.2593981456039125,3.259119624986604,131893567
0,0,0,0,0,0,0,0,0,0,0,0,1.0811981536386197,1.1462759907574642,-0.5951171273132715,0.4488249598532867,3.258583433459214,3.259109003437638,1.9651321131148474,-2.4582634876088485,3.012414087344895,0.5951332563320704,3.2594599079441915,3.2592278074297676,131894561
0,0,0,0,0,0,0,0,0,0,0,0,0.7255021483304677,1.1699404084611424,-0.6153826493480979,0.2480894861327989,3.258752591461252,3.2586601446461847,2.383509025992039,-0.4663217981245277,2.0321926393738554,1.0584381411597896,3.259378476068792,3.259382409975816,131895555
0,0,0,0,0,0,0,0,0,0,0,0,0.764328237095861,0.9036892537700241,-0.4329056182987234,0.5570561834640722,3.2589842985849735,3.2588348101180564,2.3846333366195362,-0.12552349871677146,2.2798950290554796,1.0688126407638359,3.2591888617502285,3.259216005708695,131896583
0,0,0,0,0,0,0,0,0,0,0,0,0.8881393060850269,1.329613760663719,-0.47112824572661466,0.1360907597650003,3.2584736774532406,3.2585330794493053,2.4196049832826834,-0.21072169670125207,1.86547287290965,0.8173159977574345,3.259433944157832,3.259410340715687,131897611
0,0,0,0,0,0,0,0,0,0,0,0,0.8205197716378893,1.8328993359684151,-0.1592319678344688,2.0170986315129555,3.2588930319420135,3.258941025607708,2.1868781908605324,-0.4358938140742557,1.880601499152362,1.1042351131719486,3.25896580922196,3.259334022919419,131898639
0,0,0,0,0,0,0,0,0,0,0,0,1.7430870584353277,1.1001473903831709,0.48217190291546613,1.0563338942925804,3.2593041252260355,3.2587447236472036,2.609494675337633,-0.3055634743646949,1.9822780468795356,1.3549036687497695,3.2595421266009956,3.259399719166722,131899667
0,0,0,0,0,0,0,0,0,0,0,0,0.8471869405730892,2.3588910292257106,-0.3396141933934919,0.45285839472513134,3.2586853216511393,3.2590558956928124,2.070721718158927,-0.2114506496728241,2.165257831246594,1.2673317512669267,3.2595342587869474,3.2595165562053388,131900695
0,0,0,0,0,0,0,0,0,0,0,0,1.110076571712085,1.7542109673274715,0.7319392003940582,1.0098311793602919,3.258994133352534,3.259047634488062,2.337661306579269,-0.7215300824081996,1.5788452600056242,0.9057101018083217,3.259176666638454,3.2591625045731667,131901722
0,0,0,0,0,0,0,0,0,0,0,0,0.9209476972756024,1.6975103852165205,0.8619969203468466,1.115058078176746,3.259055108911408,3.259027571562239,1.7623927071562655,-1.248291641270118,1.7450024777653788,1.0296478426036646,3.259524030628685,3.2594547938650598,131902750
0,0,0,0,0,0,0,0,0,0,0,0,1.2249104648721771,1.7130331889430508,0.6769294115220799,1.4773524257364778,3.258554715937938,3.258527965370174,1.364455981785772,-0.5782316181935808,2.9628810838319164,-0.6135915414800097,3.2596160840530493,3.259319074072727,131903778
0,0,0,0,0,0,0,0,0,0,0,0,1.5028221133735316,1.8523835840682485,0.9148033278946075,1.1002913713802542,3.2590059350736063,3.258861954076523,0.5189362310095108,1.0318071641692117,1.7084375987574576,0.5052446610027147,3.2591975163456812,3.258680994353413,131904806
0,0,0,0,0,0,0,0,0,0,0,0,1.116262640507536,1.582142267482551,-0.009179772040816788,1.0161836524228633,3.258824975350496,3.2585429142168656,1.6135450736934034,0.02447440915994753,1.8951463335926928,0.6285899554002231,3.2590956281537564,3.2591290663634616,131905834
0,0,0,0,0,0,0,0,0,0,0,0,1.3119135393993304,1.468412228633431,0.2687232218650844,1.5652638393955038,3.2586613248182923,3.258501608193112,1.643909721840587,-0.5796910976995346,1.648172110101236,0.962309975899455,3.259033472422775,3.259330089012395,131906861
0,0,0,0,0,0,0,0,0,0,0,0,1.5112827672103366,1.5852107149613754,0.1946807974196431,1.8040933017841936,3.259198696517789,3.259103102577102,2.20704929912678,0.16033110145701185,2.3673650583463974,2.0490203200602912,3.2592935036770703,3.2591904353130383,131907889
0,0,0,0,0,0,0,0,0,0,0,0,1.3455153996366738,1.55095976006505,0.062182874939784395,0.28485302744543883,3.2589012931467645,3.2588552664345816,2.0772878023729087,-0.587234757809014,1.7763647647338823,0.6329939643137412,3.2592459034020784,3.259407980371473,131908917
0,0,0,0,0,0,0,0,0,0,0,0,1.0959589595745753,2.320476033744339,-0.5943563096948039,1.4305110014094116,3.259138507740319,3.258410341550152,1.5074279317173875,-1.156136328713456,1.2064030058864361,0.9856262428314975,3.259289569770046,3.2593277286681803,131909945
0,0,0,0,0,0,0,0,0,0,0,0,1.463991303919709,2.3408556390828656,-3.039212648774701,2.1720564093657027,3.258942599170518,3.2589201759004798,1.5934266797812795,-0.6768825980284926,0.9987269400032687,0.645774441453748,3.259265572937199,3.2591794203733704,131910973
0,0,0,0,0,0,0,0,0,0,0,0,0.7243097811114527,1.6152114767088266,-0.71517957629914,0.38659448463851026,3.2591459821636652,3.2587226937678686,1.3317113198889874,-0.8326334515373053,1.0963023896577824,0.3241751818865754,3.2594791840886095,3.259120018377306,131912000
0,0,0,0,0,0,0,0,0,0,0,0,0.7675965270515116,1.9079984078405388,0.1005294204389358,-0.08125012889505968,3.2588603805137133,3.258619625403836,1.72540493314325,-0.9122022285702501,1.166116257442982,0.8414989044068938,3.258972496863901,3.2588658879835473,131913086
0,0,0,0,0,0,0,0,0,0,0,0,0.4691195928000918,1.4879122123613608,-0.0014252545148437637,-0.10303728616682126,3.2585220645096378,3.2587667535265386,3.1775406214643267,-0.9834743956892961,1.650768095346462,0.9765397043871527,3.2592663597186036,3.2589756439895203,131914171
0,0,0,0,0,0,0,0,0,0,0,0,0.8070351251405626,1.0257843525152626,-1.3500586688588463,0.2523097815882899,3.2588053058153754,3.258816320755043,3.005864918931117,0.3965279932651512,2.626215747143715,1.4845097761761874,3.2592034172062174,3.2591554235405233,131915257
0,0,0,0,0,0,0,0,0,0,0,0,0.394586610148741,1.6615021540525143,-1.539162759681077,0.1837051968223091,3.2589583347986144,3.2588277290854126,2.6900933492294965,0.3554654783565376,2.021207204008961,1.238889210091735,3.259143621819451,3.258932371012255,131916342
0,0,0,0,0,0,0,0,0,0,0,0,0.4301058566696473,1.2086130748525947,-0.0038512949766272278,1.2231122759714455,3.259038979892609,3.258791930531493,2.2105072034009936,0.09981856343967478,1.8852096778404328,1.2716480340538066,3.2594650220233228,3.259468955930347,131917427
0,0,0,0,0,0,0,0,0,0,0,0,0.6022961142416136,1.3638344244759588,0.6719958987231134,0.9625550583070586,3.259206170941135,3.259149129289285,2.1626272276195557,-0.009488583742211312,2.4721509661854464,1.4691876017078878,3.259391064571269,3.259138507740319,131918513
0,0,0,0,0,0,0,0,0,0,0,0,1.1495458542759245,1.6322047748809783,0.8221008088708888,0.7164974351522249,3.2591727327314297,3.25864952309722,2.653993458031828,0.6898648845988374,2.3629445270233784,1.4891277896318185,3.2590995620607806,3.2587781618569087,131919598
0,0,0,0,0,0,0,0,0,0,0,0,1.6026056650406915,0.6472484764156909,2.372883543119853,0.04575133869067892,3.258679420790603,3.2585409472633535,2.641298346674245,0.619670608004404,2.6002157688398086,1.455869359477682,3.2594162415762233,3.2594449590974994,131920683
0,0,0,0,0,0,0,0,0,0,0,0,1.3504945457571202,1.851655024487379,0.5845482927022329,0.9276782188031935,3.2588588069509035,3.258610970808383,2.418638815717556,0.23223230030921702,2.271276625547007,1.2412574221202637,3.2591609310103573,3.2589272569331236,131921769
0,0,0,0,0,0,0,0,0,0,0,0,1.54603057456381,2.0842016439678246,0.5143083827863195,1.7502628982380506,3.2586416552831716,3.2587026308420457,2.017968418355992,0.19209346676987013,1.969042023306134,0.7076980719206419,3.259111363781853,3.2587789486383136,131922854
0,0,0,0,0,0,0,0,0,0,0,0,1.878602287602697,1.6553868955834978,0.789788876746759,1.9187584303329501,3.2586652587253164,3.2588418911506998,1.8678587875197872,0.05540790026282075,1.36770106168998,1.1727787223790551,3.25912552584714,3.2593009781004163,131923940
0,0,0,0,0,0,0,0,0,0,0,0,1.6727912870396717,2.0492815314866935,0.8559882707581842,2.0573326656022863,3.258953614110185,3.258852119308963,2.386712406481791,-0.528570369311615,1.7384478018817664,0.5037462358172221,3.2591353606147004,3.259287602816534,131925025
0,0,0,0,0,0,0,0,0,0,0,0,1.2650957185144087,1.8968485351620357,0.5659645159202237,2.0208283687625372,3.258928043714528,3.2589520405473755,1.775680264911683,1.4140495674669227,2.1849214655067284,0.872818705179537,3.259232528118196,3.258953614110185,131926110
0,0,0,0,0,0,0,0,0,0,0,0,1.4533827368477268,1.934782807205058,0.9204063916690817,0.8316916741957275,3.2589827250221637,3.2585960219616914,1.355963069911369,0.632054547316378,1.2206209326530613,0.10976466056879289,3.259075171837231,3.2592372488066252,131927196
0,0,0,0,0,0,0,0,0,0,0,0,1.1138625638321116,1.537490062414415,0.014493693649017054,1.0184086702357138,3.2587722609963725,3.258953614110185,0.1527370873376235,-0.01660934884659634,1.048275285753642,-0.5077906856287343,3.259195549392169,3.2593926381340785,131928281
0,0,0,0,0,0,0,0,0,0,0,0,1.2258007080317388,1.2924135556714003,-0.11326072374114081,0.8366405292320882,3.2589347313564696,3.258847005229831,0.40706732357350867,0.5392288970028039,1.1147063868887885,0.08967380400583791,3.25969279524002,3.2592384289787324,131929366
0,0,0,0,0,0,0,0,0,0,0,0,0.4707387889312254,2.198935222498801,-0.509749771326753,1.0576478192386412,3.259020883920298,3.2586428354552783,0.6848023396494792,1.1080152044314389,1.5754420370390458,0.5508528054777152,3.2592470835741856,3.2590987752793756,131930361
0,0,0,0,0,0,0,0,0,0,0,0,0.344283741031139,1.0209122086658726,1.141811006285072,1.0128968731041994,3.2583961794848655,3.2586215923573483,1.6274014744045107,3.255980760572047,1.6583011339069764,0.1805706597054791,3.2589976738688557,3.259200663471301,131931355
0,0,0,0,0,0,0,0,0,0,0,0,0.3072656759340377,2.1217429186991357,0.5617686106882823,0.9985227702287162,3.259061009771944,3.2589882324919976,1.7234615830733278,2.9252591640066106,1.3070992239831951,0.15258799226140884,3.2596333932439556,3.2594087671528778,131932349
0,0,0,0,0,0,0,0,0,0,0,0,0.2830410698701226,1.8833147148269076,1.2503561556763834,0.7368349476855931,3.2588513325275574,3.2588045190339705,1.751833313922085,3.2540692751490203,1.240413599063587,0.9567962118144288,3.2592388223694346,3.2594638418512156,131933344
0,0,0,0,0,0,0,0,0,0,0,0,0.7809497810542322,1.8135366455956274,0.64653761941643,1.0304334438363842,3.2586912225116755,3.2587514112891447,2.4782288525377334,3.1984678266606124,3.256621987416981,-0.12079769620867921,3.2593304824030973,3.258992559789724,131934338
0,0,0,0,0,0,0,0,0,0,0,0,0.6240486531315628,1.4616565301008855,0.7221831109742058,0.9070672997316479,3.258883197174453,3.258997280478153,2.300461494977652,3.2594803642607166,2.6635839299659643,1.1170651575404593,3.2597781610224437,3.259627098992717,131935332
0,0,0,0,0,0,0,0,0,0,0,0,0.7396087455283099,1.2870567544766371,0.30947259777457686,0.901347398918557,3.258756918758978,3.258673913320769,2.6290701900804265,3.2595027875307543,2.4161026258590965,1.0615754320115365,3.2593470048125983,3.259381229803709,131936327
0,0,0,0,0,0,0,0,0,0,0,0,1.4321868458016926,1.44564552851266,-0.25222441580586624,0.7087920914640535,3.258821434834174,3.2588367770715685,2.349371367618008,3.258957154626507,2.011680854759318,1.152285033736829,3.2591082166562337,3.258933551184362,131937321
0,0,0,0,0,0,0,0,0,0,0,0,1.390772246214419,1.5021167638441042,0.17479135689632377,0.7461996133565442,3.258747083991418,3.2587376426145602,2.6082987676022964,3.2593175005099173,2.204468656118948,1.4864161475200828,3.2591947626107647,3.2593957852596978,131938315
0,0,0,0,0,0,0,0,0,0,0,0,1.3764937372796222,1.7827982762811512,0.2736354915661206,1.153909343947094,3.258786423061659,3.258444959931965,2.666038687949024,3.259118051423794,2.784632609442783,1.624567881175027,3.258940632217006,3.259138114349617,131939310
0,0,0,0,0,0,0,0,0,0,0,0,1.4989751456946308,1.7885480747876255,1.2263762386293695,-0.5406624127223983,3.2587911437500887,3.258733708707536,2.795656597096514,3.259345431249789,2.559703214133169,1.3545437162570613,3.2591609310103573,3.2591872881874187,131940304
0,0,0,0,0,0,0,0,0,0,0,0,1.6251976996895907,1.6161127348080557,-0.3288293872868284,0.5846281510148228,3.2590271781715368,3.2586416552831716,2.4351679128608597,3.2594780039165023,2.2700575077602276,1.5931595674943408,3.2591778468105606,3.259461481507001,131941298
0,0,0,0,0,0,0,0,0,0,0,0,1.497431873969063,1.7767349453848535,0.41127149001020075,1.2671728214231515,3.258905620444491,3.2583721826520184,2.2308710731114236,3.2579005071998246,2.170802279806409,1.4877155170101541,3.2590102623713326,3.2590653370696705,131942293
0,0,0,0,0,0,0,0,0,0,0,0,1.285946999305129,1.694757043690329,1.0745301812327124,1.951159662146528,3.2587006638885336,3.258642442064576,1.7778293583189675,3.259669191797875,2.836219899203765,1.6402614164664049,3.2591227721122227,3.2594095539342822,131943287
0,0,0,0,0,0,0,0,0,0,0,0,1.1242468982037186,2.0288114462866123,0.7442428880027399,1.4646301704204283,3.2587073515304743,3.2588104198945067,0.2752873391255544,3.255655819851854,3.0986968634959298,0.49285167370458527,3.2594260763437837,3.2594492863952262,131944281
0,0,0,0,0,0,0,0,0,0,0,0,1.3307813442684822,1.713336099783909,0.44263377697870454,0.3012204410100509,3.259002001166582,3.2586133311525973,1.55912615765645,3.2590936612002444,1.463477535662357,0.46774705263937144,3.2592518042626146,3.259166438480191,131945275
0,0,0,0,0,0,0,0,0,0,0,0,1.2386224911954986,1.8193765305729543,0.7010843874316677,1.3699308001912593,3.258775408121992,3.2587809155918257,1.044964902992833,3.257936305753744,1.4901163804669832,0.38840447526031435,3.2591798137640726,3.2590614031626464,131946298
0,0,0,0,0,0,0,0,0,0,0,0,1.3647828894594776,1.8316562213487888,0.2651555615848972,0.8137436167888183,3.2590157698411666,3.2583965728755677,1.2458360965056532,3.25906848419529,1.7787180279157195,0.45264321001091123,3.258961088533531,3.2590071152457134,131947320
0,0,0,0,0,0,0,0,0,0,0,0,1.5402803826666334,1.9371002718329753,0.4724582996914744,0.7370481654463011,3.2589292238866356,3.258712465609606,1.283745191543721,3.2589662026126627,1.4700864994629024,-0.020032634738997784,3.259233314899601,3.2592234801320408,131948343
0,0,0,0,0,0,0,0,0,0,0,0,0.8873253807217336,1.9390750931590905,0.2660316426791719,0.7758290142809169,3.258645982580898,3.258548815077402,0.8318014302017009,3.2590936612002444,1.8273666891296731,0.7890426145842807,3.2593273352774776,3.259175093075644,131949365
0,0,0,0,0,0,0,0,0,0,0,0,1.6834930877081258,2.056218976523754,-0.6332480947075002,2.006238687782131,3.2587423633029893,3.2588013719083513,1.5754841298442042,3.2592722605791398,1.7996153354186217,0.7665304382479713,3.2591337870518906,3.2591534565870113,131950387
0,0,0,0,0,0,0,0,0,0,0,0,1.9505778372976583,1.4586270283015998,-0.16059152610200955,1.1097343218009854,3.258969743128984,3.2587966512199222,1.8286149178284308,3.258218760278077,1.573147782462571,0.3633785323355832,3.259693582021425,3.2594048332458536,131951410
0,0,0,0,0,0,0,0,0,0,0,0,0.9714323128977195,1.9893386232064512,0.688087938796036,1.0405715156282802,3.258611757589788,3.2587809155918257,1.9360428376248882,3.2112479104099165,1.7075851211053277,0.9679657540280525,3.2591337870518906,3.259177060029156,131952432
0,0,0,0,0,0,0,0,0,0,0,0,0.5742686002574682,1.5978346226018216,0.40278133187071463,0.738475386914657,3.259376115724577,3.258904046881681,1.4448642545776669,3.25943197720432,2.3617891385303897,0.4168041368489428,3.2590598295998365,3.259087760339708,131953454
0,0,0,0,0,0,0,0,0,0,0,0,1.557319314160265,1.062133653418261,-0.11008330703774774,0.9514952720994081,3.2584418128063453,3.258487446127825,2.147401040482645,3.2591943692200624,1.5729558077997932,1.464261563332267,3.259278161439676,3.2592659663279013,131954477
0,0,0,0,0,0,0,0,0,0,0,0,1.1924510112346425,1.334653095561635,-1.056910211671616,-0.08436932377449557,3.2587415765215844,3.258481545267289,2.3717269744547576,3.258765966745134,1.726451745802372,0.6761835427503041,3.2592203330064216,3.2591593574475475,131955499
0,0,0,0,0,0,0,0,0,0,0,0,0.3027397159027715,1.1541571800896144,-1.3245158105511439,0.3208282137904422,3.25923803558803,3.2588556598252842,1.9213410402942943,3.259413881232009,2.3824810960866323,1.4881049738055434,3.258771474214968,3.258920962681885,131956522
0,0,0,0,0,0,0,0,0,0,0,0,0.9368733330814043,0.537125043526297,-1.306677509150208,0.6086914668907484,3.258745117037906,3.258693976246592,2.777370223685529,3.2591802071547753,2.798645579653451,1.4768599005770564,3.259219152834314,3.2597199391984866,131957544
0,0,0,0,0,0,0,0,0,0,0,0,1.083755586595009,0.7751059621698811,-0.4840129714027609,0.6151950019830468,3.2590519617857883,3.2586841414790317,2.1592948149794116,3.2593458246404916,2.3798792099808703,1.1257708937848678,3.2591263126285446,3.259121591940116,131958566
0,0,0,0,0,0,0,0,0,0,0,0,1.4582666824181894,1.4461966688867414,-0.771501323163667,2.6555508918226827,3.259163684745274,3.2588658879835473,1.705065847047072,3.2595657300431404,2.2417904188383124,1.2572432467035348,3.2591231655029254,3.2590574692556222,131959589
0,0,0,0,0,0,0,0,0,0,0,0,0.7348955315226949,1.213377036258821,0.3118813290454541,2.816871764286967,3.2585641573147957,3.25867076619515,2.423792627309874,3.259435911111344,2.3893894302117142,1.6825324276128324,3.2591558169312256,3.259294290458475,131960611
0,0,0,0,0,0,0,0,0,0,0,0,1.6622798874711855,1.691069792636608,0.96352515977921,1.872179004213691,3.2587372492238575,3.258843071322807,2.47220210697676,3.259531898442733,2.9432205966974014,1.7466826494553862,3.259334022919419,3.2592958640212846,131961633
0,0,0,0,0,0,0,0,0,0,0,0,1.382883582458923,2.0111049307709847,1.3928355804485772,2.1277853998882055,3.2589162419934556,3.2589213560725874,2.6323203840637666,3.2595562886662828,2.9045868759854883,2.062019129040137,3.2592156123179925,3.2590889405118153,131962724
0,0,0,0,0,0,0,0,0,0,0,0,2.0358208818222145,2.1844698529803575,0.9538886611328913,0.8594245385437653,3.258601529431525,3.2584331582108925,2.353849727374283,3.259235281853113,1.967802055812127,1.2759462208683752,3.2589901994455097,3.259307665742357,131963815
0,0,0,0,0,0,0,0,0,0,0,0,1.5666745384543583,2.3008548856800655,1.0849987012146354,0.7553420132806317,3.25905864942773,3.2588595937323084,2.79218885805474,3.2594213556553546,1.6564022369864269,-0.06518247904568661,3.259187681578121,3.2595138024704218,131964905
0,0,0,0,0,0,0,0,0,0,0,0,1.434716741408913,1.9262277395996736,1.0797563767142746,1.5443578772971482,3.258940238826303,3.2587407897401794,0.6550010269881518,3.255478794035768,0.9826903680193863,-0.5592697929465524,3.2595145892518267,3.2590437005810378,131965996
0,0,0,0,0,0,0,0,0,0,0,0,1.4214645888167128,1.8867757662267404,0.9862481935320131,1.7042798524236502,3.258821041443472,3.2587738345591823,0.0017045619135572807,3.255015773179027,0.8172833463291342,-0.6454030806306696,3.2588387440250806,3.2592344950717083,131967087
0,0,0,0,0,0,0,0,0,0,0,0,1.5672968825455764,1.9670605143380777,0.11306874907836306,0.6557960695977294,3.258759279103193,3.2592364620252203,0.5643370585843395,3.2555385894225344,1.296365165277143,0.2049058085567723,3.259357626361564,3.2591554235405233,131968177
0,0,0,0,0,0,0,0,0,0,0,0,1.3231385497019945,1.809342707317198,-0.41081555018610355,0.729450610810591,3.258994526743236,3.2588615606858204,1.2704297030484322,3.2588993261932524,1.903446090632211,0.474043270831498,3.259502394140052,3.2594020795109366,131969268
0,0,0,0,0,0,0,0,0,0,0,0,1.4451046162968415,1.143996685027681,-0.2183538697187745,0.8733096567761489,3.2587474773821206,3.2583041260605006,1.1032559637136414,3.2573914596309015,1.4995636581854412,0.28291282450113586,3.2591625045731667,3.2587443302565013,131970358
0,0,0,0,0,0,0,0,0,0,0,0,0.9295216476347026,1.3687718711819494,1.1773703786576246,0.7223664310415304,3.2587407897401794,3.2586231659201577,1.6720052924162496,3.2583631346658626,1.5899994599818539,0.7169333120504989,3.2591542433684157,3.2591129373446623,131971449
0,0,0,0,0,0,0,0,0,0,0,0,1.3175004741550056,1.6725477781948779,0.3765405984569309,1.2499773204299593,3.258848578792641,3.258326942721241,2.5152166265507487,3.2584496806203935,2.093857025367859,1.3793926333657065,3.2592604588580674,3.259318680682025,131972540
0,0,0,0,0,0,0,0,0,0,0,0,1.082217822339275,1.7257916362037224,0.42218454148585094,1.5058252579957554,3.258850939136855,3.2586904357302706,2.708684207044149,3.2590279649529412,2.5589730809894897,1.1702134216086175,3.2588953922862283,3.2589142750399436,131973630
0,0,0,0,0,0,0,0,0,0,0,0,1.423309984601734,1.7388034270767483,-0.22320083656321005,0.8691090308557785,3.2588572333880936,3.258519310774721,3.1722912159313217,3.2524260821850395,1.5511926473608788,2.328020874025926,3.258918995728373,3.259281701955998,131974721
0,0,0,0,0,0,0,0,0,0,0,0,0.8390048073535927,1.7454178983471271,0.5150444167905351,0.7201976680991253,3.258924109807504,3.2586436222366837,2.219318368353649,3.258177454254324,2.302568888970481,0.9986553428954293,3.2593348097008237,3.2594288300787007,131975812
0,0,0,0,0,0,0,0,0,0,0,0,0.8964453573757836,1.710311712063755,0.4784488533078257,0.5439153604406548,3.259081859479172,3.2589366983099817,2.2066456802661034,3.2590098689806304,2.2121468558486526,1.1855379564211317,3.259341497342765,3.258957154626507,131976902
0,0,0,0,0,0,0,0,0,0,0,0,0.4422789385651276,1.3761388988660452,0.8401428866556748,0.879316339411299,3.258585007022024,3.2588611672951178,2.599714589084934,3.259241576104352,2.3399563479371484,1.4650137263552814,3.2594555806464647,3.2594209622646524,131977993
0,0,0,0,0,0,0,0,0,0,0,0,0.9734110681308589,1.1392370509191814,0.2851598721933213,-0.6197406315494336,3.259176666638454,3.2589142750399436,2.1869065149911067,3.259650702434862,2.032584456513459,1.3700429165414472,3.259326155105371,3.2591613244010595,131979083
0,0,0,0,0,0,0,0,0,0,0,0,1.244179134867088,1.389561783023093,0.023461034710530602,-0.6431827835062484,3.2590519617857883,3.2583910654057338,2.401295399820256,3.259051568395086,2.2218789484356583,1.0033138755934088,3.259289569770046,3.2592462967927807,131980078
0,0,0,0,0,0,0,0,0,0,0,0,0.8140052216059233,3.22796111440195,-1.637456147367495,2.5154314178742667,3.258594448398882,3.2582470844086506,2.2483702717268788,3.258496887504683,2.2983678696594083,1.2393860625488833,3.2591451953822608,3.2590614031626464,131981072
0,0,0,0,0,0,0,0,0,0,0,0,0.9540987317679801,1.9656486351071158,0.5411746074169406,1.5799176430604032,3.2588092397223996,3.258835596899461,2.4984475610789727,3.2573116013183117,2.3767387720035043,0.9605601740551202,3.258795471047815,3.259161717791762,131982067
0,0,0,0,0,0,0,0,0,0,0,0,1.2312448419624378,1.724823501685083,0.4340212743307679,1.8817340709846104,3.258841497759997,3.2587415765215844,1.8478001889944302,3.25876203283811,1.9776974055406338,1.6747011988998888,3.259322614589049,3.259559435791902,131983061
0,0,0,0,0,0,0,0,0,0,0,0,1.3451877051815635,1.9461584861467462,1.2212251807719685,1.7934867016657234,3.2588674615463566,3.258863921030035,2.6617578103253616,3.2589461396868393,3.1560245103865276,1.0419668724497404,3.2594783973072046,3.2590802859163626,131984055
0,0,0,0,0,0,0,0,0,0,0,0,1.7744414775897832,1.6557680911741364,0.38189661287028936,1.104541957919831,3.2589878391012954,3.258907587398003,1.9124071374424858,3.22431634954409,2.968935760132761,0.11380399630117373,3.2590987752793756,3.2590232442645126,131985050
0,0,0,0,0,0,0,0,0,0,0,0,2.0781001541733923,1.8334756533474508,0.6382791684006652,1.0110349549096769,3.2588088463316973,3.258554715937938,0.8571790644143896,3.2590657304603727,1.6262767703863108,0.8400705027664307,3.25946620219543,3.2594508599580356,131986044
0,0,0,0,0,0,0,0,0,0,0,0,0.38018103601706454,1.785499690234624,0.4236330060521371,1.5399648833232977,3.2589713166917935,3.258619625403836,1.5945336812178708,3.259144801991558,1.8824701049888257,1.156768114181532,3.2593163203378106,3.2591888617502285,131987038
0,0,0,0,0,0,0,0,0,0,0,0,1.6886256562025137,1.6748943537347738,0.35121449842625835,1.847741967170473,3.2588399241971877,3.258867068155654,1.4711415733267752,3.259173126122132,2.0107221616175366,1.2401732373444123,3.259177060029156,3.25901144254344,131988033
0,0,0,0,0,0,0,0,0,0,0,0,1.7378592893909561,1.8211456085617075,-1.0164700408542204,0.6859148485559045,3.2586058567292517,3.258181388161348,1.863496478020725,3.259053141957896,1.8788745139687673,1.1731060234434634,3.2592148255365876,3.2593698214733386,131989027
0,0,0,0,0,0,0,0,0,0,0,0,1.544714682664237,2.1437248043685915,-1.2646893459188158,2.212076045522218,3.2588399241971877,3.259033472422775,2.5111104143989578,3.259144801991558,1.9869255646378474,1.7981829998711347,3.259323794761156,3.258997280478153,131990022
0,0,0,0,0,0,0,0,0,0,0,0,1.5221706416810323,2.1155950088018187,-0.6096285235438971,1.0358390254782468,3.258600349259418,3.258740396349477,2.345380418942024,3.258588154147643,1.508102203381324,1.388760446162277,3.2589783977244373,3.2591027091863998,131991016
0,0,0,0,0,0,0,0,0,0,0,0,1.587908981789229,1.4697371685191594,-1.0942846887451039,0.1539050643330889,3.2589488934217563,3.25848980647204,2.405859912140359,3.2462537820641733,1.5795832609633518,0.5707088077913293,3.2590975951072685,3.25937493555247,131992010
0,0,0,0,0,0,0,0,0,0,0,0,1.0801426863840444,1.3673186859272344,-0.3892711149777311,0.22482357321066535,3.2589823316314614,3.2587832759360404,1.8759689302407418,3.2556054658419447,0.7016437890104996,0.9181007287622366,3.259346218031194,3.258991379617617,131993005
0,0,0,0,0,0,0,0,0,0,0,0,0.5296757971853968,1.5003748298138175,-0.004840672593196939,1.245631926731101,3.2589119146957293,3.2587376426145602,1.8873788341735402,3.245701854908687,2.5572315403499055,-0.1718802656984646,3.259380443022304,3.259236068634518,131993999
0,0,0,0,0,0,0,0,0,0,0,0,1.3983162997146008,1.512761916251411,0.4274685654006678,1.7869430407217788,3.2589386652634937,3.2587577055403836,1.5137099878442273,3.2569744654863433,1.9297371780559036,0.9746069758661956,3.2590814660884693,3.2592907499421537,131994993
0,0,0,0,0,0,0,0,0,0,0,0,0.7384596512865604,1.2851169449230366,1.3924575319835581,0.829332116762652,3.2588796566581317,3.2588879178628822,2.137736611096455,3.2576007434845855,1.1979486463008697,0.7276811394311355,3.2592329215088984,3.258994133352534,131996011
0,0,0,0,0,0,0,0,0,0,0,0,0.9205641413407494,1.5261163504262387,0.7092582594464134,0.7397326635995701,3.258662504990399,3.2588253687411983,1.7998053431278875,3.2573438593559096,1.5425939133875266,0.8668210705305421,3.259233314899601,3.258940238826303,131997029
0,0,0,0,0,0,0,0,0,0,0,0,1.152523821893194,1.4929893127667084,0.39136631385878484,1.6661799628949119,3.258974070426711,3.2589016865374667,2.195074486145316,3.2591794203733704,2.0078570971318594,1.1680828175643465,3.2589036534909788,3.259197909736384,131998046
0,0,0,0,0,0,0,0,0,0,0,0,1.2154443044000034,1.6464313562430568,0.72983023283842,2.1241272597464635,3.2584563682623346,3.2586416552831716,2.4868740066139705,3.2592392157601373,2.293572830387691,1.5970749851554613,3.2594315838136176,3.2592978309747966,131999064
0,0,0,0,0,0,0,0,0,0,0,0,1.5766371579929779,1.3515547337001244,1.1567854233724382,1.387341485898672,3.2588938187234184,3.2588552664345816,2.1094140540854998,3.2589437793426246,1.8545881455645734,1.1237842707376802,3.2594705294931563,3.2592518042626146,132000081
0,0,0,0,0,0,0,0,0,0,0,0,-0.2732279387984203,2.121895947682374,-0.4537171666284998,1.0212973381635353,3.258883590565156,3.258597595524501,1.675102064025648,3.2576731273738293,0.9719732251135379,0.7046906000006914,3.259136540786807,3.259026784780834,132001099
0,0,0,0,0,0,0,0,0,0,0,0,1.5107280863199335,1.8123309030927304,0.7327956119532122,1.1412803222275163,3.2587167929073324,3.2587167929073324,1.2705520475568828,3.2575751730889286,1.7918749799579359,0.7470214065338858,3.2594866585119555,3.259219152834314,132002116
0,0,0,0,0,0,0,0,0,0,0,0,1.386593650173384,1.9990061997182607,0.966184874318227,1.5408795167064089,3.259263212592985,3.258994526743236,1.6496068059929376,3.2587521980705496,2.8858323676386317,0.39043437128476755,3.259245510011376,3.2587462972100134,132003134
0,0,0,0,0,0,0,0,0,0,0,0,0.8710083211670304,2.0547587102363956,0.46671046813851214,1.221885290370618,3.258639294938957,3.2584646294670856,0.6571017333390394,3.2593324493566094,2.7600645732956615,-0.19390739129869833,3.258974463817413,3.259081072697767,132004152
0,0,0,0,0,0,0,0,0,0,0,0,0.9010035754446477,1.9756230563668078,0.8536731664744813,0.9166345616143419,3.258961088533531,3.2586876819953536,1.9350994867205007,3.258265573771664,1.9780864689453208,0.9313784517500939,3.2590598295998365,3.259077138790743,132005169
0,0,0,0,0,0,0,0,0,0,0,0,1.5348008435727172,1.7750508397878215,1.3541314428009323,1.6348239701776468,3.259173519512834,3.2589182089469677,2.657991094349753,3.2590224574831073,1.533238295702731,0.9947080605874133,3.2589901994455097,3.2588403175878904,132006187
0,0,0,0,0,0,0,0,0,0,0,0,1.698127615228607,2.056418032219175,0.8189355872792705,1.2574843952041141,3.258856446606689,3.258614511324705,1.7697353446168116,3.259180600545478,1.3441865258439214,1.3133179442069463,3.259160144228952,3.2589929531804263,132007204
0,0,0,0,0,0,0,0,0,0,0,0,1.3005299926435938,2.116881789789413,0.4222238805560923,1.0484471974905964,3.2590787123535527,3.259082646260577,1.9102285397325205,3.258992559789724,1.6711020673635086,1.1190183423779418,3.25952324384728,3.259319860854132,132008222
0,0,0,0,0,0,0,0,0,0,0,0,1.4868779882047163,1.625651672560176,0.9310782946441524,1.262120504632056,3.259058256037027,3.2589898060548075,0.6613715960230345,3.2514040531401696,0.7379246399312782,0.18326735297052296,3.2590889405118153,3.2591872881874187,132009239
0,0,0,0,0,0,0,0,0,0,0,0,1.683731875864491,0.9468583758900614,1.5863145692723477,1.7540583317349352,3.2588123868480188,3.258730561581917,0.7995429992130993,3.2554158515233818,0.4846121054425365,0.6121666803558684,3.2594095539342822,3.2593383502171456,132010257
0,0,0,0,0,0,0,0,0,0,0,0,1.7774107906115997,2.125891223656085,1.3219839479904112,1.3941373102828634,3.2590814660884693,3.2589288304959334,2.109679199418926,3.2588788698767264,1.6163924355974715,1.747673994025468,3.2597844552736825,3.2595523547592586,132011274
0,0,0,0,0,0,0,0,0,0,0,0,0.6705706442082696,2.0012080074796685,0.477436659030516,0.80654732066957,3.258638901548254,3.2584123085036643,3.0406320024290086,3.2591939758293598,2.8133041040067797,1.8108084810743905,3.259103102577102,3.2588702152812736,132012370
0,0,0,0,0,0,0,0,0,0,0,0,1.5792469119127883,1.48373755022735,0.2305363929911128,0.851609832240323,3.2588127802387215,3.258566911049713,2.289124761715503,3.259197122954979,0.8407754589051555,2.856105799210763,3.2591444086008554,3.2593277286681803,132013466
0,0,0,0,0,0,0,0,0,0,0,0,0.8920602312159813,1.61176616093709,-0.010269070895799506,0.8063104994667171,3.258981151459354,3.2592242669134457,1.973961767430516,3.2587514112891447,0.7599745821922519,0.9157179612777187,3.2590283583436435,3.2594217490460573,132014561
0,0,0,0,0,0,0,0,0,0,0,0,1.1640316801108932,1.3457364852114302,-0.43567548223441627,1.6806764102788458,3.258874542579,3.258461482341466,2.3505869448884655,3.257291145001786,1.7678986034272437,1.1910379518315732,3.2595027875307543,3.2589292238866356,132015657
0,0,0,0,0,0,0,0,0,0,0,0,1.3116350187820218,1.6209203625822497,-0.11012776018712046,0.6456225926426162,3.2589473198589465,3.258934337965767,2.1418593456577475,3.259289569770046,1.9550809806681848,1.7121268167646906,3.2591849278432043,3.2591920088758477,132016752
0,0,0,0,0,0,0,0,0,0,0,0,1.1916890134440674,1.7388388322399655,-0.7871342762868734,-0.8400382447288327,3.2588281224761153,3.258763213010217,2.7538655226070308,3.2593981456039125,2.4705541933243502,2.0426761082024703,3.259323794761156,3.259126706019247,132017848
0,0,0,0,0,0,0,0,0,0,0,0,0.7081846962195272,1.381191609047843,-0.47113257302434125,0.06274070295580661,3.259191615485145,3.258741969912287,2.8892418848564487,3.2592179726622073,2.26888599024844,1.3295358693046413,3.259256918341746,3.2593214344169414,132018943
0,0,0,0,0,0,0,0,0,0,0,0,0.4081782589171241,1.2947306269086152,0.8655095059286959,0.10472375210806752,3.259187681578121,3.2585987756966084,1.8259752662152366,3.1965307708419286,0.8807085491071401,0.832330540696447,3.259326155105371,3.2590118359341425,132020039
0,0,0,0,0,0,0,0,0,0,0,0,1.2490678011259795,1.9075582036445382,1.4256254822761394,1.6097358715219343,3.258740396349477,3.258677453837091,1.912267483743129,3.2316774763676492,1.6287484441695743,1.1249864727242558,3.258911127914325,3.259241576104352,132021135
0,0,0,0,0,0,0,0,0,0,0,0,1.4420916369070573,1.876724633780078,1.397883569941946,1.4525318327584067,3.259071631320909,3.2587045977955578,2.342992143987673,3.2571648665863115,2.553410929848066,0.9674067458399231,3.259460694725596,3.2593887042270544,132022230
0,0,0,0,0,0,0,0,0,0,0,0,1.3075449356490296,2.0684967003460764,1.1173971792932962,1.5499393045829897,3.258747083991418,3.258912701477134,2.283398173260471,3.257025212886955,1.405720699515426,1.273416718651857,3.259090120683923,3.2592175792715046,132023326
0,0,0,0,0,0,0,0,0,0,0,0,1.6670056899792778,1.6047402029919864,0.6831839302997506,1.6056886679755054,3.258966989394067,3.2586971233722117,1.3589304159796733,3.2581027100208653,-0.5694645129995958,2.4864794357394495,3.259237642197328,3.259199089908491,132024421
0,0,0,0,0,0,0,0,0,0,0,0,1.7604135585324239,2.0369290634309127,0.9127238646416502,1.5637866573079415,3.2591483425078795,3.2590909074653274,1.0241883664355713,3.256363923116198,1.559632451490456,0.6817929007760167,3.2596011352063576,3.259410340715687,132025517
0,0,0,0,0,0,0,0,0,0,0,0,1.4181439778976415,1.6599820923783888,0.21123113766087742,0.18748646825390675,3.2589064072258953,3.2584492872296913,1.4551872199996971,3.258963842268448,2.018489267645987,0.9399185705087865,3.2594307970322127,3.2592069577225393,132026612
0,0,0,0,0,0,0,0,0,0,0,0,1.8766077967414612,1.3955857748491496,-1.015603794527506,0.5680817446806127,3.258671946367257,3.2588674615463566,1.3621640875535115,3.259694762193532,1.093375169441124,0.5864814146138924,3.2591164778609842,3.2593922447433763,132027708
0,0,0,0,0,0,0,0,0,0,0,0,1.5165549894040808,1.1601760578365394,-0.39504412353564783,0.9301518595399688,3.2591648649173814,3.2592518042626146,0.818803801393962,3.2541428392103717,1.3927588692616066,0.24869727476802764,3.259401686120234,3.259498460233028,132028803
0,0,0,0,0,0,0,0,0,0,0,0,1.4540192430042318,1.7101095092427145,-1.2398380684659562,1.0202351832670191,3.2590263913901314,3.2586888621674612,1.2092161427993944,3.244503980219838,1.0552009290696298,-0.08945625894740329,3.2591589640568452,3.259031505469263,132029798
0,0,0,0,0,0,0,0,0,0,0,0,1.4863996251105813,2.6639017896535147,-0.2699439132146732,0.7025281313095249,3.258741969912287,3.2584831188300987,1.5262398751067967,3.2218521501841724,1.2636700706088626,0.3918250074177989,3.2590853999954934,3.2587793420290163,132030793
0,0,0,0,0,0,0,0,0,0,0,0,0.9658099729788271,2.470598253083021,0.418195559763379,1.3976148840921978,3.259033472422775,3.2590916942467323,1.4825904229391123,3.2540968124981893,1.0098197710299217,0.8458195144915002,3.259517736377446,3.2593175005099173,132031787
0,0,0,0,0,0,0,0,0,0,0,0,1.5923771133872404,2.088322804966307,1.7341295521413744,1.862525983157871,3.2590318988599654,3.2586601446461847,1.8375322982707378,3.2333934466115766,1.492789863680585,0.6996508717120732,3.2593296956216924,3.259121591940116,132032782
0,0,0,0,0,0,0,0,0,0,0,0,0.41005079866061195,2.262077577361772,0.9592977832910756,1.4794039582495637,3.258937091700684,3.258959121580019,2.785907982100008,3.259284455690915,1.8041837816457487,2.087483309207357,3.2592769812675693,3.2590578626463245,132033776
0,0,0,0,0,0,0,0,0,0,0,0,0.9657989580391595,1.4173607370091363,0.2804214811827518,1.5605840635995938,3.2586019228222276,3.2589186023376704,1.5031136158840197,3.2591794203733704,1.3123513832511167,2.8765467734988657,3.259110577000448,3.2593745421617673,132034771
0,0,0,0,0,0,0,0,0,0,0,0,1.499701344931286,1.7561027832153777,0.4266668351491493,1.0180790088270912,3.2590299319064533,3.2587077449211765,2.0973833796242927,2.9942071788557976,1.0729648796278093,0.5402686286292826,3.2593367766543357,3.259080679307065,132035765
0,0,0,0,0,0,0,0,0,0,0,0,1.5344471853312474,1.0346057456261808,-0.1534935776583645,1.4016786100481284,3.25871639951663,3.258731741754024,1.9042757516236006,3.2559154577154468,1.5401367950602525,1.031397251057297,3.259444172316095,3.2591778468105606,132036760
0,0,0,0,0,0,0,0,0,0,0,0,0.7394805001593232,1.310232580927918,-0.19985309837497453,0.6425085118423117,3.258656604129863,3.2588757227511076,2.256209368253871,3.2584150622385812,1.762092550050324,1.141154437202744,3.2591652583080837,3.2590397666740136,132037755
0,0,0,0,0,0,0,0,0,0,0,0,0.4012534023825409,1.5374192520879806,-0.27030465248878627,0.5779672596415592,3.2590928744188394,3.2588359902901636,2.5554270571979347,3.259353299063837,1.9208717251863152,1.2164269943746322,3.2592584919045553,3.2589874457105927,132038749
0,0,0,0,0,0,0,0,0,0,0,0,1.3860814554788417,1.9266821058609611,-0.34274951729172676,0.5130495325385966,3.258820254662067,3.2588178943178523,2.0673031529549544,3.2585551093286407,1.3992757796377873,0.5897257077366957,3.2591015290142926,3.2590157698411666,132039744
0,0,0,0,0,0,0,0,0,0,0,0,3.1683360658092576,-0.032651821691014965,1.4272997531056109,-0.619127335444371,3.2589878391012954,3.2587923239221954,1.6211898352134029,3.2574370929523813,1.699161052603847,0.7876885637865738,3.25898705231989,3.2592510174812097,132040738
0,0,0,0,0,0,0,0,0,0,0,0,2.085146568435021,1.7359242005257844,0.11859352810305691,1.361869437917404,3.2589327644029575,3.25914676894507,1.7982782004211186,3.25885172591826,2.178915963043685,1.450101858389599,3.2596227716949904,3.2591884683595262,132041733
0,0,0,0,0,0,0,0,0,0,0,0,0.9686644159155388,1.9089905391920254,0.3257416636635856,1.131945947640651,3.258597595524501,3.2586416552831716,2.4658000666856843,3.257796258663685,2.5341308515227854,1.4838355045122509,3.259347398203301,3.2593214344169414,132042727
0,0,0,0,0,0,0,0,0,0,0,0,1.5474589762042732,1.6908538211409831,0.5574240037708287,1.8082494745551914,3.2588796566581317,3.2588654945928446,2.823143198864841,3.259236068634518,1.867799385523723,1.11162259717257,3.2589418123891125,3.2592584919045553,132043722
0,0,0,0,0,0,0,0,0,0,0,0,1.9365719481196342,1.6610973550197308,0.6713755215854074,1.2020639064388163,3.2590173434039764,3.2590067218550107,2.2448690944753995,2.972562035627608,2.229814425684741,0.5444712215031648,3.2592368554159226,3.2594878386840627,132044716
0,0,0,0,0,0,0,0,0,0,0,0,1.4923626413777638,1.5700911367048187,0.7045245891242728,1.012110485090075,3.258824188569091,3.258441419415643,1.4077824601867746,3.2566361494822678,2.138397900867212,1.5958869452341728,3.259241576104352,3.259082646260577,132045773
0,0,0,0,0,0,0,0,0,0,0,0,1.6433039001588703,1.512262310059346,-0.08607703281367216,0.660504169524213,3.2586998771071283,3.25852088433753,2.3176778456780722,3.259092087637435,2.1240190773033,1.7768970223542477,3.2590614031626464,3.2591585706661426,132046830
0,0,0,0,0,0,0,0,0,0,0,0,1.280453691536628,1.8190480493364392,-0.928457132393972,0.7629309133208886,3.2589713166917935,3.2591628979638694,2.412580992291092,3.259069664367397,2.0906249273568305,1.3975562688775383,3.2592203330064216,3.259562189526819,132047886
0,0,0,0,0,0,0,0,0,0,0,0,1.1947692626439645,2.0422091534387055,0.14504236519841732,1.8929142347471994,3.2588261555226032,3.2585362265749245,1.610798419809153,3.257462269957336,1.2005764961929912,1.151875907406319,3.2590322922506676,3.258953614110185,132048943
0,0,0,0,0,0,0,0,0,0,0,0,2.1753278464469723,1.4745050638324098,1.771837624530509,2.1903298008835077,3.258909554351515,3.2588997195839546,1.7659151275056753,3.2541117613448813,0.8013604642582494,0.7130462185199521,3.2593147467750008,3.2590783189628505,132049999
0,0,0,0,0,0,0,0,0,0,0,0,0.9493249355941934,1.8126401081848273,1.4045090561519928,1.1431528619710043,3.2590149830597617,3.258607036901359,1.6021902444589429,3.2529740754335013,1.2902298438823037,1.439383928702346,3.2593277286681803,3.2594610881162986,132051056
0,0,0,0,0,0,0,0,0,0,0,0,1.265982814548351,1.3760912985910532,-0.11457936937563054,-0.4416538407389928,3.2588588069509035,3.2586377213761475,2.5428377679393015,3.2592887829886417,1.8451652580696651,2.433493248640686,3.2594854783398484,3.2588316629924368,132052112
0,0,0,0,0,0,0,0,0,0,0,0,1.1694467031296136,1.5342681925616493,0.4322789469097789,1.1935218207266116,3.2588682483277616,3.258710498656094,2.902224958208198,3.258791930531493,2.1739938585750886,1.295516228141335,3.2592718671884375,3.2593839835386254,132053169
0,0,0,0,0,0,0,0,0,0,0,0,1.2226516154589195,1.8617651655394034,0.013536574070045241,1.1476866898163187,3.2586892555581635,3.2588088463316973,1.8184870741947976,3.258891458379204,-0.37838245372563045,0.8079418907096255,3.259405620027258,3.259313959993596,132054226
0,0,0,0,0,0,0,0,0,0,0,0,1.0522147002476097,1.4577828118542209,-0.7343860905630696,0.8772172066232211,3.2589968870874504,3.25855668289145,1.5536753360838098,3.022888901578057,1.7799229836372117,0.21120399370241089,3.2591967295642768,3.2590031813386893,132055282
0,0,0,0,0,0,0,0,0,0,0,0,1.116802372551247,1.679117796315884,-0.840058307654656,0.5594637345628422,3.258763999791622,3.2586503098786244,1.9534126106992495,3.2579445669584945,2.025517585935305,1.1065805085397373,3.259195156001467,3.2593603800964805,132056339
0,0,0,0,0,0,0,0,0,0,0,0,1.1169341584365555,1.3404548216408279,0.6072072037705426,0.8619524671974739,3.258833629945949,3.258656604129863,2.600442755275101,3.2592706870163304,2.6053660399158045,1.4613614870740754,3.259361560268588,3.259418601920438,132057395
0,0,0,0,0,0,0,0,0,0,0,0,1.2465064342625658,1.5398240494518338,0.23832946280592235,1.5966280933175199,3.259144015210153,3.2587223003771664,2.619590654324371,3.259322614589049,2.3278603706193413,1.3972502109110605,3.2595275711450062,3.259197122954979,132058452
0,0,0,0,0,0,0,0,0,0,0,0,1.1577331015745522,1.6378145262973933,0.5597996902227032,1.2953828686932167,3.258631033734206,3.258835596899461,2.312642051296479,3.2591625045731667,2.06155178088567,0.912665642817693,3.2594544004743575,3.2592726539698424,132059508
0,0,0,0,0,0,0,0,0,0,0,0,1.0922528257671387,2.5651784259293584,0.029396513628544046,0.3996849536520187,3.25870656474907,3.2589662026126627,2.17814570404836,3.2585940550081793,2.1130521313014183,1.3644382792041634,3.2592262338669578,3.2592828821281055,132060565
0,0,0,0,0,0,0,0,0,0,0,0,1.4420896699535453,0.4226979163525004,0.6102370989605307,0.5453716928209892,3.2592203330064216,3.258940632217006,1.745750706881369,3.258070451983267,1.3552620476796684,0.08374383255765826,3.2594819378235265,3.2592116784109684,132061621
0,0,0,0,0,0,0,0,0,0,0,0,1.045373242541938,1.6807432866982561,0.3596122097506773,0.9937143556731171,3.258719546642249,3.2586192320131335,0.7513121189251087,3.220520522656503,1.225088277469668,0.32074284800801844,3.2590712379302067,3.25918256749899,132062616
0,0,0,0,0,0,0,0,0,0,0,0,1.590358232302455,1.6686390481756983,0.3867593153428215,0.991929148665565,3.2586463759716002,3.2586593578647802,1.4324571052142505,3.259353299063837,1.3574182221195963,0.6785914872397765,3.2594925593724917,3.2590122293248447,132063610
0,0,0,0,0,0,0,0,0,0,0,0,1.5616694285475525,1.570833858350975,0.47103501213014265,0.560561688013278,3.259075171837231,3.2586503098786244,0.9159237046150809,3.2590995620607806,1.857054311878003,-0.20557496614157747,3.259503574312159,3.2593088459144646,132064605
0,0,0,0,0,0,0,0,0,0,0,0,1.9558980531570975,1.9185821912982692,-0.15439916305532014,0.8361365957422966,3.258795077657113,3.2585437009982705,1.8118726029244188,3.2590141962783568,1.677279088172804,0.8178517958941216,3.2593080591330597,3.259269113453521,132065599
0,0,0,0,0,0,0,0,0,0,0,0,1.1463094289671694,1.8822132208601499,-0.8354426545432394,1.0164389629887298,3.2589264701517187,3.258568878003225,0.8823871472343382,3.1675650200325274,1.1424679687581023,0.40787102077853926,3.259227414039065,3.259162111182464,132066594
0,0,0,0,0,0,0,0,0,0,0,0,1.094629299000418,1.8092431794694877,0.35032307509458954,1.681119761600466,3.259127492800652,3.258725447502785,1.3729854789954994,3.0183735630957558,1.3764339418928553,1.5786631201104069,3.259566123433843,3.259344644468384,132067588
0,0,0,0,0,0,0,0,0,0,0,0,1.465393741773813,1.4143186467073734,0.7511685313187279,0.08972297784363958,3.2588021586897558,3.258552748984426,2.671686204872871,3.2572010585309332,2.0777866217835688,1.6605470014270545,3.259264786155794,3.258784062717445,132068583
0,0,0,0,0,0,0,0,0,0,0,0,1.8178505680382928,1.0794204210544134,1.8464579399177956,-0.5936198822998859,3.258934337965767,3.2584752510160504,2.0850761514992895,3.254646379309461,2.2946995013594034,1.5017591716956105,3.2595405530381862,3.259256131560341,132069577
0,0,0,0,0,0,0,0,0,0,0,0,0.9911581028888348,1.9604267669232804,1.1563936062328346,-1.3447931343070427,3.2586558173484583,3.25874905094493,2.1702129805341936,3.254206961894865,1.4288914118875755,1.1648102003109695,3.2593611668778855,3.2592203330064216,132070572
0,0,0,0,0,0,0,0,0,0,0,0,1.5661706049645667,1.5319397129940644,-1.011598290395533,0.5986324666300377,3.2589366983099817,3.2584780047509674,1.8861435873679622,3.243504767835708,1.0741474120792642,1.094806324816504,3.2588092397223996,3.259049994832276,132071566
0,0,0,0,0,0,0,0,0,0,0,0,1.339520518722596,0.940888671980938,-0.9847639304118073,1.9128300324475802,3.258878083095322,3.2588721822347857,1.6418888738022892,3.2033934716455303,0.8007754922837605,0.7052897340404669,3.25929665080269,3.2590409468461212,132072561
0,0,0,0,0,0,0,0,0,0,0,0,1.0261384041474346,1.110426689437233,-0.14175912639607505,2.528576174804708,3.2588198612713644,3.258769507261456,1.789913927306405,3.2587376426145602,0.11652114588274311,3.130297151839393,3.2595515679778537,3.259263212592985,132073555
0,0,0,0,0,0,0,0,0,0,0,0,1.6583743045776251,1.5893617736532417,0.03613411618877842,1.6758735031930807,3.2590322922506676,3.2588316629924368,1.0938334696094356,3.259176273247751,2.1830186346791547,1.4820624926164736,3.259109396828341,3.2590425204089306,132074550
0,0,0,0,0,0,0,0,0,0,0,0,1.290647231417564,1.363109405411411,1.2743541686957083,1.72463231380371,3.259136147396105,3.2586931894651876,2.5692834579090427,3.259289176379344,2.455042011146785,1.8538631265000254,3.259322614589049,3.25958028549913,132075544
0,0,0,0,0,0,0,0,0,0,0,0,1.5817425825288989,1.7383030341032784,1.4656671483119903,1.3026535156552213,3.2589567612358046,3.2588127802387215,2.5892732130614773,3.259330089012395,2.4468303736246075,1.602319670000037,3.2593635272221,3.259304518616738,132076539
0,0,0,0,0,0,0,0,0,0,0,0,0.5706454718882408,1.6757680744848338,0.8318553247279316,1.0280817542173568,3.2592034172062174,3.258868641718464,1.8986152528065743,3.255426866463049,1.9018422367384715,0.9103686345063011,3.259440238409071,3.2594012927295317,132077533
0,0,0,0,0,0,0,0,0,0,0,0,0.932443360381527,1.232297555482096,0.08377294346963685,1.3741872875913723,3.258708531702582,3.2586613248182923,1.9077470311816966,3.2586031029943348,2.1216370966001863,1.0255553991264579,3.2590909074653274,3.2591593574475475,132078590
0,0,0,0,0,0,0,0,0,0,0,0,0.6504093707095826,1.6044034605507207,0.39481713710035526,2.0049955731625047,3.259024031045917,3.25870341762345,1.4106876505240975,3.219685354195279,1.9367686434708409,0.6587118814840175,3.258802945471161,3.259271080407033,132079646
0,0,0,0,0,0,0,0,0,0,0,0,0.08192715429391316,3.2052140838162995,-0.4087632308916128,1.3888524995866416,3.2590397666740136,3.258782489154635,1.9581321189561032,3.245613342000644,2.5495639621691657,1.4198406719971501,3.2593792628501967,3.259252591044019,132080702
0,0,0,0,0,0,0,0,0,0,0,0,1.4432611874653323,1.9404968071576127,0.7641657667357643,1.6773872706159676,3.258717579688737,3.258953614110185,1.9608693314634955,3.2580145905035245,2.3435204677010137,1.1948664301474607,3.259434730939237,3.259224660304148,132081759
0,0,0,0,0,0,0,0,0,0,0,0,1.3425508073032864,1.7487184463403755,0.6411737371890232,1.0341450851136547,3.258957548017209,3.2590869735583032,2.1847377520487012,3.257718367304607,2.1194931172720333,1.6680753192991398,3.259289569770046,3.2590916942467323,132082815
0,0,0,0,0,0,0,0,0,0,0,0,1.5068166025658372,1.7547605341387431,0.5760589213441516,0.16515879215702917,3.259060222990539,3.2590134094969523,2.6762145252483514,3.093080424437573,2.45120409145404,1.8086707959974762,3.2593525122824323,3.2595417332102934,132083871
0,0,0,0,0,0,0,0,0,0,0,0,1.3100610625816655,1.7452031070236096,0.8507073939689868,0.04071239718346562,3.258563370533391,3.2586676190695307,1.981274507197679,3.2314028896573648,2.8723394599365544,1.1798554277247701,3.259332055965907,3.2592384289787324,132084928
0,0,0,0,0,0,0,0,0,0,0,0,1.3045114999427199,1.8992497920095672,0.5212253715068544,0.8154454249674588,3.2591904353130383,3.258833629945949,1.5648865777118894,3.2581440160446187,1.940218286540304,0.7135493652283388,3.2590433071903355,3.2590224574831073,132085984
0,0,0,0,0,0,0,0,0,0,0,0,1.3432435683302364,1.8925853601199816,0.23503678262672217,1.0660364825769046,3.258863921030035,3.258597595524501,1.1320376076743135,3.164840789418314,1.1976193782829496,0.40313026942375535,3.259405226636556,3.2594744634001804,132087040
0,0,0,0,0,0,0,0,0,0,0,0,1.4544456785256479,1.4224645879822477,0.8159713883365856,0.9429154208797718,3.2586267064364796,3.2584591219972516,0.9225019839408378,3.2500480353889505,1.7776590201448224,0.9786427710822547,3.2592309545553864,3.258924109807504,132088097
0,0,0,0,0,0,0,0,0,0,0,0,1.2575685808144308,1.6810454107577097,0.7486893831121186,1.7178561589546393,3.2589331577936598,3.259115297688877,1.4484641728954522,3.2394457625682067,1.4241565613933278,0.8572368928476444,3.2590326856413703,3.259134180442593,132089153
0,0,0,0,0,0,0,0,0,0,0,0,1.789034699086511,0.8351086658368904,0.6796154832381586,-0.3642734961835737,3.258792717312898,3.258708138311879,1.72016929628483,3.2560165591259667,2.1852715832318763,1.3578257748872964,3.2592262338669578,3.2592179726622073,132090209
0,0,0,0,0,0,0,0,0,0,0,0,1.9565558024115326,1.684508429111055,0.06094054710156287,0.4238053111797942,3.2587982247827316,3.259059042818432,1.9567717739071575,3.2559866614325834,1.601752793997859,0.7947778576347658,3.259309239305167,3.2591841410617994,132091266
0,0,0,0,0,0,0,0,0,0,0,0,1.9538748447745853,1.3548607891632067,0.5740844934087388,1.2964875097855937,3.2587923239221954,3.258875329360405,1.9199566984125016,3.1893214928295004,1.61617213680412,0.8930869809492803,3.2594760369629903,3.259143621819451,132092322
0,0,0,0,0,0,0,0,0,0,0,0,0.6804821229555753,1.4804114318384447,0.5053493029295567,1.062754817337372,3.2589673827847694,3.258625919655075,2.499468803342438,3.2591782402012632,1.9545672124108329,2.038235513953628,3.259378476068792,3.2594260763437837,132093378
0,0,0,0,0,0,0,0,0,0,0,0,0.7650402742672293,1.440902810204364,-0.482285986219166,0.7020800592994759,3.2588890980349894,3.258501608193112,1.125677660188396,3.2596884679422935,-0.28907135594741773,2.9531537119333398,3.2593249749332633,3.259460694725596,132094434
0,0,0,0,0,0,0,0,0,0,0,0,1.195524179401896,1.2061386473344144,-0.5292312656916697,0.475405976224658,3.2585684846125225,3.2585031817559216,2.399281632814602,3.259156997103333,2.549341696422302,1.6203259492309032,3.259496886670218,3.2591015290142926,132095491
0,0,0,0,0,0,0,0,0,0,0,0,0.875745925396195,1.665112300528562,-0.2922114005340815,0.18832478384074972,3.2588088463316973,3.2585397670912464,2.439343361776276,3.2591278861913544,2.4116754068941364,1.1689144455092484,3.259058256037027,3.259166045089488,132096548
0,0,0,0,0,0,0,0,0,0,0,0,0.5148158567924328,1.3432703188980004,-0.21624214842821937,-0.041472034629825905,3.2588776897046197,3.258869035109166,2.0343098681342444,3.2593257617146683,2.399435055188543,1.067966850753647,3.259193582438657,3.2592411827136494,132097604
0,0,0,0,0,0,0,0,0,0,0,0,1.333282915745129,0.7383317993082761,-0.4955184692762457,0.25745493858515484,3.2585865805848337,3.258889491425692,2.262694807373858,3.259302551663226,2.6016056181914347,1.4992454051071888,3.2595716309036766,3.2593214344169414,132098661
0,0,0,0,0,0,0,0,0,0,0,0,1.2350595516037406,0.9527852002126217,-0.8633379892513738,2.0675875744327987,3.2591054629213168,3.2588757227511076,2.371517297210371,3.2592144321458854,2.380553088254105,1.444738762943597,3.259126706019247,3.2592462967927807,132099717
0,0,0,0,0,0,0,0,0,0,0,0,0.6380934879891262,1.9246915489067493,-0.8980212805296517,1.7256146103876364,3.258939452044898,3.258725840893488,1.8484245000391601,3.259584612796856,1.8671974977490304,1.1932763449283057,3.2591392945217246,3.2590071152457134,132100774
0,0,0,0,0,0,0,0,0,0,0,0,2.1978120920434105,1.3809972740408507,0.3828631738261191,0.9324347057860739,3.2583222220328114,3.2587313483633213,2.1947137468712024,3.259376115724577,2.367854829770902,1.708624459341104,3.2596931886307225,3.259169192215108,132101830
0,0,0,0,0,0,0,0,0,0,0,0,1.4916022171499987,1.5759829492548643,0.3214281346116226,1.3146141665713986,3.2591062497027217,3.2587423633029893,2.6838175873538956,3.2592431496671614,2.6951110476387794,1.8674040278677975,3.259166438480191,3.259273047360545,132102887
0,0,0,0,0,0,0,0,0,0,0,0,0.8393328951994056,1.6970151063221819,0.269281443271809,1.2881562814898826,3.2588308762110323,3.2588442514949145,1.8731601206255102,3.2591672252615957,2.8250432759574977,0.42167706747973766,3.2591082166562337,3.2591337870518906,132103944
0,0,0,0,0,0,0,0,0,0,0,0,1.6235808639026716,1.4345007699132883,0.3208793545817559,1.1960694189154408,3.2585141966955895,3.258426470568951,1.6214223291185295,3.258071238764672,2.4293638264374526,0.8379878923878541,3.2591459821636652,3.2591829608896923,132105000
0,0,0,0,0,0,0,0,0,0,0,0,1.429112497462332,1.409409130741254,-0.6483299074566253,0.9922623505905092,3.2588717888440835,3.2588828037837505,1.2553175992152212,3.258850939136855,1.9036215428854875,1.1824297764813632,3.2591243456750325,3.25898705231989,132106057
0,0,0,0,0,0,0,0,0,0,0,0,1.3566212125565067,1.6130702511155903,-0.22703639591174074,0.7561028308990992,3.2590519617857883,3.258843071322807,1.2055564290948426,3.259313566602893,2.5813998915433753,0.8995039700870479,3.259330089012395,3.259042127018228,132107113
0,0,0,0,0,0,0,0,0,0,0,0,0.8401137757436962,1.6048196679138742,0.21375119850053767,0.9278560314006843,3.2588796566581317,3.258542520826163,2.1648974853631837,3.2593643140035047,2.0838601808381294,0.8510276140007512,3.2594492863952262,3.2593403171706576,132108170
0,0,0,0,0,0,0,0,0,0,0,0,1.0781375739738435,1.0354810399390506,0.5517135443345956,1.1245978027102712,3.258861954076523,3.258756525368276,1.5467583473632749,3.2591507028520943,1.593338560263939,-0.12998533606354426,3.259315926947108,3.2590079020271183,132109226
0,0,0,0,0,0,0,0,0,0,0,0,1.56893889533745,0.9682989559529966,0.7572393366383715,1.2404474306639945,3.2588296960389247,3.2588938187234184,1.422694328152457,3.2591719459500244,1.299815595128011,-0.05360931797138667,3.2590916942467323,3.2590173434039764,132110283
0,0,0,0,0,0,0,0,0,0,0,0,-0.3001201272154006,3.0268298896348345,0.00566010542632406,0.7993108986986754,3.2589469264682442,3.2585551093286407,0.9604205203557634,3.2578025529149235,0.683009264827879,0.012337519209089183,3.2592175792715046,3.2592679332814134,132111339
0,0,0,0,0,0,0,0,0,0,0,0,1.7674143394725725,1.8361825747707576,0.7213023091915022,-0.015170325657168108,3.2586436222366837,3.2586845348697344,0.9918225397852111,3.258605463338549,1.4328127304092322,0.8586798499440967,3.259166438480191,3.2589587281893166,132112334
0,0,0,0,0,0,0,0,0,0,0,0,0.639776806804753,1.3807561255402714,0.4263092430006555,-0.33908941019647243,3.2586267064364796,3.2583619544937554,2.096443569236227,3.25918256749899,2.055497497975528,0.702297997748613,3.2593694280826364,3.259176273247751,132113328
0,0,0,0,0,0,0,0,0,0,0,0,0.49376473352488676,1.6440922551265065,0.002285599981021879,0.46744886248694206,3.2587691138707533,3.258757312149681,2.581219325210968,3.2590472410973597,1.180021831991891,2.1136961118812696,3.2592462967927807,3.2593670677384217,132114323
0,0,0,0,0,0,0,0,0,0,0,0,1.318044140105741,1.4785739038674715,0.004560578413078596,0.9959114427460959,3.2587093184839864,3.2585602234077715,1.6852723938551417,3.259115297688877,2.258119280114088,1.2976566669531662,3.259429223469403,3.2592958640212846,132115317
0,0,0,0,0,0,0,0,0,0,0,0,1.1147992270945581,0.9878292307650125,0.15183386228488233,0.6889282213363911,3.2585767458172734,3.258818287708555,1.9780730936614386,3.259067697413885,2.3709893668877324,1.1255081087956558,3.2595704507315695,3.2591019224049953,132116312
0,0,0,0,0,0,0,0,0,0,0,0,1.421999600171995,1.1330517689051354,0.17531456653053362,0.8843312840856652,3.2593438576869795,3.258792717312898,1.9709495748221366,3.2594248961716765,2.358898897039759,1.272111054910547,3.2591558169312256,3.259359593315076,132117306
0,0,0,0,0,0,0,0,0,0,0,0,1.144493537484829,1.3362896008836747,0.5417418768098208,0.5869837745408744,3.2588446448856168,3.2586526702228387,2.2254623443439416,3.2594280432972957,2.7719807710624655,1.8630314902104723,3.2593887042270544,3.2590527485671936,132118301
0,0,0,0,0,0,0,0,0,0,0,0,1.4352364105268014,0.7089459072286972,0.16431339553754276,1.097842907648433,3.2587628196195144,3.258634574250528,3.164385636375622,3.258996100306046,3.2542356794161416,2.398945677154741,3.2593926381340785,3.259387130664245,132119295
0,0,0,0,0,0,0,0,0,0,0,0,2.119159128565684,1.7542573874303562,0.04631349400442766,0.5571022101762545,3.2588949988955256,3.258584220240619,3.121616199209237,3.2592175792715046,3.0007095337759893,2.057499069869407,3.2587628196195144,3.2591432284287487,132120289
0,0,0,0,0,0,0,0,0,0,0,0,1.076656457979257,1.8609122944965713,0.0900109398378062,0.7652346092742215,3.258675486883579,3.258485479174313,2.260038633351163,3.2593662809570167,2.338003163099666,0.9876372561022349,3.259092087637435,3.259195942782872,132121284
0,0,0,0,0,0,0,0,0,0,0,0,1.747810893989908,1.6399510312022008,0.20235191611670447,1.1972834226230886,3.2588446448856168,3.2588068793781853,1.518380322263279,3.258730954972619,2.1982086298714436,0.7641933040849332,3.2592490505276976,3.2592215131785287,132122278
0,0,0,0,0,0,0,0,0,0,0,0,1.2767184468172128,1.6347153943437809,0.11860611660553415,1.6977342245261935,3.259138507740319,3.258786423061659,1.2069781430933644,3.2593230079797513,1.4518249096661697,0.9866624339416543,3.259046060925252,3.258782095763933,132123273
0,0,0,0,0,0,0,0,0,0,0,0,1.7998899221289064,1.3279870901092397,0.46912942756765214,1.7304501689017018,3.258452827746013,3.2586617182089945,1.9663075645336583,3.259509081781993,1.304120469584521,2.2250528246227295,3.258968956347579,3.259022064092405,132124267
0,0,0,0,0,0,0,0,0,0,0,0,1.5910018194916034,1.5377371117755307,0.396106278432164,0.9740196435474925,3.2591507028520943,3.258531899277198,2.271129104033602,3.2591231655029254,2.6354509872735723,1.5502693593823145,3.2595114421262075,3.259387130664245,132125262
0,0,0,0,0,0,0,0,0,0,0,0,1.5152776497933447,1.1891555773205251,0.13282483015356425,1.206215358521385,3.2590118359341425,3.258934337965767,1.8230586675475438,3.259309632695869,2.6881240353732148,1.1993499039828663,3.2592462967927807,3.2592793416117836,132126256
0,0,0,0,0,0,0,0,0,0,0,0,1.4630581811735845,1.2775658103902114,0.44546776359889073,1.0746560662574847,3.259059042818432,3.258457941825144,1.5626037314657844,3.2595322918334353,2.5202752375930833,0.7406744409411479,3.259198696517789,3.2590051482922013,132127250
0,0,0,0,0,0,0,0,0,0,0,0,0.7833164195199512,1.7024100664150794,-0.2069659956653113,0.7595509004057527,3.2588552664345816,3.2588623474672254,1.210628022030356,3.256222302463329,1.3849111181391618,0.1894368993564724,3.25938634388284,3.259351332110325,132128307
0,0,0,0,0,0,0,0,0,0,0,0,1.7065886624561146,1.7003730893579827,0.19244712501133976,1.57103842151623,3.2587997983455415,3.2588104198945067,1.0850266319545068,3.2591900419223356,2.4599369716569153,0.6410749961227173,3.259097201716566,3.2588293026482225,132129364
0,0,0,0,0,0,0,0,0,0,0,0,2.3494445382886573,1.301268780382726,-0.4541510765732618,1.3735794989561436,3.2588426779321047,3.2584630559042758,1.249317604222012,3.2590173434039764,1.7658411700536214,0.4479504523218217,3.2593611668778855,3.259243543057864,132130420
0,0,0,0,0,0,0,0,0,0,0,0,1.6059939391605782,1.5595883917317857,0.3038895969259258,1.776008352757496,3.2587596724938956,3.258990592836212,1.0603079271683606,3.257439453296596,1.4730558124847186,0.3540071790226911,3.259383196757221,3.259536619131162,132131477
0,0,0,0,0,0,0,0,0,0,0,0,1.8863296611702038,1.4652580219814804,0.29500998199105044,0.41103584897945505,3.2589693497382815,3.2589158486027534,1.5429743221967605,3.2562352843565083,1.7636511640132861,0.912842668633779,3.2594201754832475,3.2590492080508717,132132533
0,0,0,0,0,0,0,0,0,0,0,0,0.6918365587993335,1.1589077662119585,-0.3831369737549989,0.2893711196626568,3.2589473198589465,3.2587148259538203,2.328348568481036,3.2592769812675693,2.737029580715845,1.1774738404123593,3.2591849278432043,3.2591263126285446,132133590
0,0,0,0,0,0,0,0,0,0,0,0,1.0541537230198053,1.1474494752227633,-0.32323655167061704,0.9116935743920295,3.2588851641279653,3.258929617277338,2.3155842203598285,3.259523637237982,1.487405918527355,1.9824920514216484,3.259381229803709,3.2591880749688236,132134646
0,0,0,0,0,0,0,0,0,0,0,0,0.9037136439935736,1.316892685519777,-0.19339677016696574,1.0621973827120523,3.258841104369295,3.258754558414764,2.885492871462449,3.259117658033092,2.625507643879371,1.5987067697890722,3.259468955930347,3.259138507740319,132135703
0,0,0,0,0,0,0,0,0,0,0,0,1.6253208309794462,0.9498835503916204,-0.04851018768670412,0.5815372802659607,3.258995313524641,3.2587671469172412,2.1525564256377727,3.2589213560725874,1.8153403419661929,0.7335941950791114,3.2590861867768988,3.259257705123151,132136760
0,0,0,0,0,0,0,0,0,0,0,0,1.4703138792888972,0.7293085967670198,-0.1974081751594752,0.1602323603907061,3.258873362406893,3.258898539411847,1.2595831346014896,3.259348184984706,1.907218314077653,0.8690803133345023,3.2590346525948823,3.2590157698411666,132137816
0,0,0,0,0,0,0,0,0,0,0,0,1.8332848588567803,0.7160717864122136,0.3065245278506908,0.860112185491584,3.2588843773465603,3.2588721822347857,1.6248766928764216,3.258926076761016,2.0853102189672255,1.656465966280218,3.2593001913190114,3.2591782402012632,132138873
0,0,0,0,0,0,0,0,0,0,0,0,1.4864405377436325,0.4010382176683209,2.7951723331418434,-2.0058146126049294,3.2590968083258636,3.2587647865730265,1.7094261895926224,3.259202630424813,2.103126097098124,1.395786010716678,3.2593918513526736,3.2591499160706894,132139929
0,0,0,0,0,0,0,0,0,0,0,0,2.899950766557546,1.4970793958997006,-0.7380544588630746,0.7404238510637104,3.259018130185381,3.2589225362446945,1.7338478843984466,3.259583432624749,1.8444728904334176,1.5198244595318389,3.259170372387215,3.259293110286368,132140986
0,0,0,0,0,0,0,0,0,0,0,0,1.0278170022746327,1.367994924544683,-0.20301950013870002,0.5127678647956686,3.258917028774861,3.259033079032073,1.589538012687923,3.258963055487043,1.7423136523143832,1.3839280347738305,3.2595987748621433,3.25929507723988,132142042
0,0,0,0,0,0,0,0,0,0,0,0,1.2045383339569966,1.4543784087155351,0.8616523100915324,0.7369887634502367,3.258999640822368,3.25890876757011,1.1186839602808905,3.2592400025415422,1.267607124758616,1.9956187123797788,3.259203023815515,3.2590224574831073,132143099
0,0,0,0,0,0,0,0,0,0,0,0,1.165902252900869,1.6520277323755896,1.321834459523494,0.3842915754665822,3.258765573354432,3.2587777684662065,1.4801580882260905,3.2590437005810378,2.4697284662399848,0.5761911006201625,3.2592462967927807,3.2589551876729947,132144155
0,0,0,0,0,0,0,0,0,0,0,0,1.0479845700245582,1.8471955474848207,1.6130911008228181,-0.1734125224843648,3.259016163231869,3.258904046881681,1.1345006268621238,3.257145197051191,1.5234601764035434,-0.3624430492452442,3.25922820082047,3.2592423628857565,132145212
0,0,0,0,0,0,0,0,0,0,0,0,1.1020565154619832,1.9743028371695086,0.43502756774754137,0.9649476605591368,3.258871002062678,3.258575565645166,0.7060080654630738,3.195695208990003,1.0278413924981824,-0.5800565576620766,3.259170372387215,3.2588320563831394,132146269
0,0,0,0,0,0,0,0,0,0,0,0,1.1246064573057242,1.3722793426846673,0.7068444140964047,1.5734463660057028,3.2584563682623346,3.2588293026482225,0.07802432513526976,3.254551572150179,0.5887359367294236,-0.23161467690642798,3.2590657304603727,3.2591349672239978,132147325
0,0,0,0,0,0,0,0,0,0,0,0,1.4784275625261738,1.2536822740652886,0.9189516328515568,1.5559353656691748,3.258989019273402,3.2586837480883295,0.8517833175400874,3.2584189961456054,1.406590486358462,0.9064221389796899,3.259237642197328,3.259433944157832,132148382
0,0,0,0,0,0,0,0,0,0,0,0,1.4007450939113013,1.865740378587291,1.3657982308624066,1.4083450088912257,3.2590212773110006,3.258941025607708,1.5637516455354268,3.259479577479312,1.2475052532559934,1.2744151442545824,3.259524030628685,3.259114510907472,132149439
0,0,0,0,0,0,0,0,0,0,0,0,0.23998996496080935,2.0543523376408026,1.2231968549724643,-0.9526187959455008,3.2587427566936915,3.258784456108147,1.4673225363877458,3.2588383506343783,1.0278331312934317,0.7383880541787211,3.2595067214377784,3.2591833542803945,132150495
0,0,0,0,0,0,0,0,0,0,0,0,2.0147123235121156,0.9922064891107665,0.24954699868524058,1.2301826870659216,3.2588977526304426,3.2591156910795798,1.5273008498312055,3.257093269478472,0.7840992670177539,0.6649294215356614,3.259162111182464,3.2590814660884693,132151552
0,0,0,0,0,0,0,0,0,0,0,0,1.518768205495859,1.007165957351441,-0.03970059629685834,0.3199934387199209,3.258775408121992,3.258581073115,1.9426317384996101,3.2576369354292076,1.156483299312985,1.246103995573997,3.2593363832636335,3.259298617756202,132152608
0,0,0,0,0,0,0,0,0,0,0,0,0.65240897564995,0.9194441580109783,-0.7299679195842647,0.08387483166156193,3.2588906715977988,3.258679027399901,2.438942496650516,3.2590598295998365,2.402989340184848,1.8941380732224073,3.2591318200983785,3.2589437793426246,132153665
0,0,0,0,0,0,0,0,0,0,0,0,0.4414374758526654,0.9764098854553562,-0.9941289894734607,0.7223337796132301,3.259031505469263,3.2588879178628822,2.1932420722534745,3.2591558169312256,1.8230602411103534,0.9764759750933617,3.2589437793426246,3.2590437005810378,132154722
0,0,0,0,0,0,0,0,0,0,0,0,0.9651416021754267,1.0948814624406649,0.7870087846528034,1.3463430936745517,3.2589366983099817,3.2588576267787963,2.0039719705548253,3.259214038755183,1.8037876372084185,0.7695630871728762,3.2590232442645126,3.259233314899601,132155778
0,0,0,0,0,0,0,0,0,0,0,0,1.3992568968840713,1.270069750555724,0.6103590500782788,0.775731059996016,3.2590346525948823,3.258784456108147,1.8421444108658327,3.259018916966786,2.6186539910619246,1.37707202161217,3.259586186359666,3.2593957852596978,132156835
0,0,0,0,0,0,0,0,0,0,0,0,1.733661810596205,1.2776299330747045,0.4202561402626204,0.7366657896835553,3.2590023945572844,3.259108610046936,2.3836990337013044,3.259294683849178,2.3486585436652354,1.2659832079390534,3.259106643093424,3.259264786155794,132157892
0,0,0,0,0,0,0,0,0,0,0,0,0.7445756965369816,0.7565284796391105,0.5913452972585317,0.8112510932983271,3.2589520405473755,3.258715612735225,2.035064784892176,3.2592785548303786,1.5225632456020408,0.6092890273677144,3.259174306294239,3.2592482637462927,132158948
0,0,0,0,0,0,0,0,0,0,0,0,0.3535480920729747,2.238257376939938,0.14983897803294396,1.0318299808299518,3.258978004333735,3.2590059350736063,1.4037702684128603,3.25761451215917,1.2016016723634806,0.7345391195463085,3.259287602816534,3.2595334720055424,132160005
0,0,0,0,0,0,0,0,0,0,0,0,1.5802732682553848,1.186038742785304,-0.5154480356512112,-0.5707717503037154,3.258708925093284,3.258790750359386,2.2089871417268685,3.259309632695869,1.989264272363695,1.1941504590690684,3.25923960915084,3.259138114349617,132161061
0,0,0,0,0,0,0,0,0,0,0,0,1.2859438521795097,1.143363719387498,0.059522373619362544,0.7811995841502647,3.2588828037837505,3.258647162753005,2.0545262163312694,3.2582706878507954,1.7317782559130497,1.1321186461590107,3.2591707657779176,3.2589815448500565,132162056
0,0,0,0,0,0,0,0,0,0,0,0,1.0515215458299572,1.563638742403834,0.5598504376233145,1.1781685683928214,3.2587663601358363,3.25870656474907,1.7119434966973657,3.2589898060548075,2.0871914133061664,1.4694440924458614,3.2590405534554185,3.259290356551451,132163050
0,0,0,0,0,0,0,0,0,0,0,0,1.563825209596778,1.371557864136441,0.6201828026989463,1.6181131265298279,3.2585122297420774,3.2585437009982705,2.3311676062545303,3.2591782402012632,3.1156032223228483,0.9723080006012916,3.25922505369485,3.2592108916295635,132164045
0,0,0,0,0,0,0,0,0,0,0,0,1.952413004924417,1.443958275790009,0.6604365063233979,1.3742167918940533,3.258907980788705,3.2586577843019704,0.39975615736915554,3.2593733619896605,1.5122261181147238,1.434886686192356,3.2592773746582715,3.25902285087381,132165039
0,0,0,0,0,0,0,0,0,0,0,0,1.9795156573671884,1.1918841352324647,0.29481761393757033,1.1800643181877515,3.258972103473199,3.2589787911151396,1.9426337054531222,3.2578135678545914,1.2809289075051435,0.46059402949738854,3.2590720247116116,3.2593875240549472,132166034
0,0,0,0,0,0,0,0,0,0,0,0,1.84399570751139,1.0781812403418112,0.2671807369209214,0.6396375464960988,3.258752984851954,3.2587671469172412,0.4807855940801613,3.257963843102913,0.7590988944886797,-0.0921533456031496,3.2592384289787324,3.258729774800512,132167028
0,0,0,0,0,0,0,0,0,0,0,0,0.9769826623180702,1.2179238459973152,-0.7535713617290689,0.08780795190429114,3.2591349672239978,3.258974463817413,0.2220104362977071,3.2569587298582467,0.46238749770969123,0.10393264340551417,3.2593902777898642,3.2590834330419813,132168023
0,0,0,0,0,0,0,0,0,0,0,0,0.8482805667257984,1.0309397376703902,-0.8388844297986543,0.38932343594115204,3.2588261555226032,3.258489413081337,0.7838231067446597,3.2587750147312895,0.8438852124077334,0.347177523038092,3.2590724181023143,3.2591353606147004,132169017
0,0,0,0,0,0,0,0,0,0,0,0,1.088568721839037,1.56153370875522,-1.7137287037049178,-0.8248313337363402,3.2585307191050905,3.2586927960744854,1.0463460977490064,3.2554170316954885,0.9735298721229878,0.4892253982097385,3.258938271872791,3.2590437005810378,132170011
0,0,0,0,0,0,0,0,0,0,0,0,2.3150114434971143,0.30700092399131346,0.49141776459428843,-0.41831672409972237,3.2589862655384856,3.2586542437856485,1.6463105852974158,3.258020884754763,1.1119581594417285,1.171454962665434,3.259498460233028,3.259024031045917,132171006
0,0,0,0,0,0,0,0,0,0,0,0,1.5307587541054193,1.19310915387978,0.7019813182331702,1.469004281640563,3.258821434834174,3.2586267064364796,2.040289013420226,3.2570838281016146,1.2175808093048108,0.6076808461762483,3.259069664367397,3.2590130161062496,132172000
0,0,0,0,0,0,0,0,0,0,0,0,1.7579591939400665,1.2393541979019878,0.6992126344695847,1.9809027529838983,3.259075171837231,3.2588623474672254,2.1021438005141975,3.2559776134464276,1.5822626450374895,1.0494507371724529,3.2591192315959012,3.259046060925252,132172995
0,0,0,0,0,0,0,0,0,0,0,0,0.9637509660423953,0.9373332068125255,0.27850999575972507,1.1515053333646454,3.259119624986604,3.2587647865730265,2.8721400108504307,3.258369428917101,1.1013975860354406,0.18217687394343304,3.2593249749332633,3.2591648649173814,132173989
0,0,0,0,0,0,0,0,0,0,0,0,0.896797835445146,0.8500575125285997,0.4466152842778306,0.9342128317609825,3.258854086262475,3.2585409472633535,1.4164335151235479,3.257409948993915,1.0522280755314917,0.6527555528587762,3.2592156123179925,3.2591211985494133,132174984
0,0,0,0,0,0,0,0,0,0,0,0,0.7360737366764232,1.1095604431105188,0.5804940081231603,1.0472512897552597,3.259033079032073,3.2589540075008876,1.9280853304964698,3.2595562886662828,1.3426271250995545,1.1190777443740063,3.259380049631601,3.259195549392169,132175978
0,0,0,0,0,0,0,0,0,0,0,0,0.7074758061737784,1.2119155897993552,0.41732301918542614,0.8044635301188862,3.2587706874335627,3.2588033388618634,2.0057736999718787,3.25901144254344,1.7370957180375715,1.313987495182454,3.2595122289076124,3.2592392157601373,132176972
0,0,0,0,0,0,0,0,0,0,0,0,0.22537038628702,1.1111009611011695,0.13360531730715242,0.7284340892355549,3.2588320563831394,3.258881623611644,2.5349038642530277,3.259132606879783,1.90447284036551,1.6810733414975811,3.2587077449211765,3.258883983955858,132178029
0,0,0,0,0,0,0,0,0,0,0,0,1.1040034060482269,1.0112867249592215,-0.2120875492200314,1.5558936662547191,3.258820254662067,3.258942599170518,2.4823216894056426,3.259151096242797,1.986019192459487,1.1425061276562367,3.2593969654318053,3.25877344116848,132179086
0,0,0,0,0,0,0,0,0,0,0,0,-0.15802740550367897,1.707618952705735,-0.8002062559373684,2.6033420447518876,3.2590173434039764,3.2585936616174767,2.4029185298584137,3.2582120726361357,1.9905113208903455,1.0503555357880037,3.2592718671884375,3.2593867372735423,132180142
0,0,0,0,0,0,0,0,0,0,0,0,1.3700617992951631,1.3785106514108958,0.7007999659538229,0.797772741052239,3.2588367770715685,3.2587817023732306,2.107794857954366,3.2568489738522732,1.649852675181946,0.9453347736996142,3.259406406808663,3.258913488258539,132181199
0,0,0,0,0,0,0,0,0,0,0,0,1.1914663543065016,1.5086848150115986,0.3625476911720861,1.4127513781489585,3.2585857938034284,3.2591349672239978,0.9547136014358522,3.2534205738807405,0.6879333362499875,0.2790930007807017,3.2592553447789365,3.2593379568264433,132182255
0,0,0,0,0,0,0,0,0,0,0,0,1.4648229318646109,1.3167856832487206,0.6915816416241695,1.260306580103228,3.2590358327669895,3.258822221615579,1.2473628458217199,3.2587226937678686,0.7569993683098992,0.6880615816189743,3.2593548726266466,3.2595381926939715,132183312
0,0,0,0,0,0,0,0,0,0,0,0,1.372064944751852,1.6022897723066534,0.9947167151828664,1.0246517806830144,3.259003968120094,3.258738036005263,1.9767697902643429,3.2421290805493688,0.09814468600090574,0.20703051174050707,3.2592860292537242,3.258863921030035,132184368
0,0,0,0,0,0,0,0,0,0,0,0,1.319888355718655,1.3182424090197573,-0.3992152451533371,-0.041876833662609296,3.258701450669938,3.2586263130457773,0.7758856625420645,3.258031506303728,1.0823476412710715,0.3464835818390347,3.259210498238861,3.259405620027258,132185425
0,0,0,0,0,0,0,0,0,0,0,0,0.7999914646138506,1.3867962463851269,-0.08379694030248407,0.13591216038610462,3.258981938240759,3.2586550305670534,1.113366104765666,3.258972103473199,1.2547810142971294,0.643032114867224,3.2592494439184003,3.259298617756202,132186482
0,0,0,0,0,0,0,0,0,0,0,0,1.5133889810310577,1.3487353025359274,0.5405896354424519,1.2870543941324226,3.2590633701161584,3.258883197174453,1.6563656516511025,3.2594087671528778,1.7015615226699734,0.9063639171557327,3.2591668318708935,3.258911127914325,132187538
0,0,0,0,0,0,0,0,0,0,0,0,2.0358964128370776,1.0267218025591138,0.34029869321569123,1.4611577106902254,3.2588678549370593,3.25887296901619,1.788327775994274,3.2589559744543997,1.8703147256749542,1.0280353341144721,3.2590322922506676,3.2592706870163304,132188595
0,0,0,0,0,0,0,0,0,0,0,0,1.7980516073765285,0.6979506370962425,0.594337426941088,-0.9221337702433788,3.259254951388234,3.2588108132852094,1.879264364154859,3.2594142746227113,1.7775669667204579,1.5083653817612386,3.259116084470282,3.2592317413367917,132189651
0,0,0,0,0,0,0,0,0,0,0,0,2.0491107999218463,0.8868139728085962,0.811609865618928,0.005544055169112105,3.258841497759997,3.2589142750399436,2.112701226794866,3.256950075262794,1.5607736779181574,1.5184574268409523,3.2595425199916983,3.2592832755188077,132190708
0,0,0,0,0,0,0,0,0,0,0,0,0.5931442729406683,1.2404375958964342,0.44546107595694967,0.28818662025769,3.2588056992060777,3.2586927960744854,2.5468487795411083,3.2591924022665504,1.7672495087682616,1.6871925338736216,3.2594819378235265,3.2592754077047594,132191764
0,0,0,0,0,0,0,0,0,0,0,0,1.1600914788355206,0.9402423310568727,-0.6846819620945408,0.4415460516865315,3.258876509532512,3.2591204117680084,3.006056500203192,3.2595649432617355,1.8687793217634345,1.5757119030609013,3.2590492080508717,3.2593442510776818,132192821
0,0,0,0,0,0,0,0,0,0,0,0,1.299859261495979,0.6191934250823766,-0.8823619702293837,0.36330378810212466,3.2587809155918257,3.2588234017876863,2.5496092020999432,3.241261260659845,3.249799412465025,-0.7966503973782536,3.2594245027809743,3.259364707394207,132193877
0,0,0,0,0,0,0,0,0,0,0,0,0.5745982616660907,0.9771156283754859,-0.2533959333176533,0.7755544275706324,3.2588442514949145,3.258797438001327,3.0728333917657604,3.258627099827182,1.2677326163926859,1.7689993106125963,3.2594878386840627,3.259166438480191,132194934
0,0,0,0,0,0,0,0,0,0,0,0,1.5353126448765568,0.2793243145137208,0.3960889692412578,0.8727821198442124,3.259206564331837,3.258902866709574,2.342646353560251,3.257525212469722,1.231428555420465,0.7497712075437555,3.259012622715547,3.259139687912427,132195991
0,0,0,0,0,0,0,0,0,0,0,0,0.941429190806054,0.6869652017313482,0.20422288229738264,0.47395633148626465,3.2587691138707533,3.2582266280921255,1.7777408454109245,3.24333875695929,0.9598918032517199,0.7398030805353022,3.2594551872557624,3.2592706870163304,132197048
0,0,0,0,0,0,0,0,0,0,0,0,0.9247797161078114,0.9026727321949878,0.041540091221343424,0.4383737490622698,3.2589709233010913,3.258791537140791,1.4943362825317719,3.256098384392069,0.7946330898562776,0.5184979937670223,3.2593993257760197,3.2591314267076763,132198105
0,0,0,0,0,0,0,0,0,0,0,0,0.8864138944642418,0.9490121899857747,-0.06640159683246576,0.4750381559179015,3.2589756439895203,3.2589331577936598,1.3290995990156649,3.2577765891285644,1.0165624876692876,0.522410657693226,3.259229380992577,3.2591813873268825,132199162
0,0,0,0,0,0,0,0,0,0,0,0,1.5758574576207942,1.4208162809391356,0.12152507561744161,0.8190724872437103,3.258935124747172,3.2587577055403836,1.4015015842320424,3.25822584131072,1.117084040294175,0.7661496360480351,3.259725053277618,3.259281701955998,132200218
0,0,0,0,0,0,0,0,0,0,0,0,0.7638388590620588,1.652956527823988,0.30619958713049733,0.5417371561213917,3.258913488258539,3.2589606951428287,2.0426761082024703,3.25777422878435,1.6016532661501486,0.6813310600913834,3.259259672076663,3.259234101681006,132201275
0,0,0,0,0,0,0,0,0,0,0,0,1.2137629525378886,1.2332397262143764,0.609383834526996,0.9129488841234307,3.258957548017209,3.2584500740110958,1.679608747912496,3.188497732698647,0.9062659628708318,0.7190812252856761,3.2591231655029254,3.2589858721477833,132202332
0,0,0,0,0,0,0,0,0,0,0,0,1.4208693886839614,1.3586928079954157,0.5463748391121434,0.9290507589639138,3.2592077445039442,3.2586027096036325,1.5108704937542072,3.2591573904940354,1.3358533305946982,1.1933668247898608,3.2596267056020145,3.2595059346563735,132203389
0,0,0,0,0,0,0,0,0,0,0,0,0.9920750966161604,1.1287158165831348,0.36621487929998386,1.070200129771248,3.258847792011236,3.258942205779815,1.4936403743792026,3.129447034531478,3.1699182832143644,-0.043688791237925434,3.259083826432684,3.2588973592397403,132204446
0,0,0,0,0,0,0,0,0,0,0,0,1.5868794783210132,1.2281036172036668,-0.08650150138157622,1.1493102132451787,3.2589083741794074,3.258789570187279,1.1448420816471672,3.2590448807531454,0.698077702293122,0.9926573148557323,3.259099168670078,3.2590964149351613,132205502
0,0,0,0,0,0,0,0,0,0,0,0,2.217492248713046,0.985003505349577,0.09041298513567271,0.8655936915390123,3.25929507723988,3.258819467880662,0.6719148602384162,3.1922805776930545,0.40535174672028385,0.7737373559161849,3.2592659663279013,3.2595437001638055,132206559
0,0,0,0,0,0,0,0,0,0,0,0,1.7975209233189728,1.1715631451085977,0.5028103593361806,0.3098164212484862,3.258823008396984,3.2588584135602012,1.0997933387509988,3.2579488942562214,1.1287539754812688,0.7681138358251852,3.259225447085553,3.259433157376427,132207616
