0,0,0,0,0,0,0,0,0,0,0,0,1.107217801477647,0.17209269667776783,-0.20471737441031626,-0.006097555887407766,3.2582612464739373,3.2585857938034284,0.3495756327600041,-1.4806565142460482,-0.09382564947910899,0.18710566605397058,3.258717579688737,3.2589453529054344,106561556
0,0,0,0,0,0,0,0,0,0,0,0,0.9402175474426206,-0.7198719405975271,0.06921945443385295,0.43016801240062863,3.258793110703601,3.258548028295997,0.43926871291026026,-0.22755921215524816,-0.12195505165517946,0.6692909442533187,3.259195549392169,3.259254951388234,106562775
0,0,0,0,0,0,0,0,0,0,0,0,0.413175894400584,0.47912430514386956,-0.5451580816695787,0.4342238705425108,3.2588828037837505,3.258946533077542,0.8342872660502513,-0.007018876912459959,-0.11255812794663046,1.8361239595560979,3.2594532203022504,3.259410340715687,106563994
0,0,0,0,0,0,0,0,0,0,0,0,1.2982345578950116,-0.6225022342803757,-0.6727779594395111,-0.9229764131279483,3.258643228845981,3.258494527160469,1.1496681987843749,-0.3091012369514986,-0.09545822089412462,1.8539252822310068,3.2593021582725235,3.2588281224761153,106565213
0,0,0,0,0,0,0,0,0,0,0,0,1.012449981266258,-0.8859005195975923,-1.145842867594107,-1.455651421028545,3.2590138028876545,3.258882017002346,-0.05878555283374224,-0.7311532057706362,-0.11310926832071165,1.0140046613221956,3.259186501406014,3.2593965720411027,106566432
0,0,0,0,0,0,0,0,0,0,0,0,-0.0471919354429168,-0.33760554046696906,-0.25123582497070135,-0.37726404395866914,3.2588627408579276,3.2587903569686834,-0.8672789773081514,-2.7617054059154276,-0.12850894075738678,-2.386972044345384,3.2591585706661426,3.259377689287387,106567651
0,0,0,0,0,0,0,0,0,0,0,0,2.3101593625735477,0.8262219698693716,0.9781927321186937,0.8393187331341186,3.258727021065595,3.258435518555107,-1.7018821360924405,-2.8072919139017953,-0.11909392107652676,-0.5605557871527418,3.2594540070836553,3.258997280478153,106568870
0,0,0,0,0,0,0,0,0,0,0,0,1.3546176737091151,0.24540577476093467,-0.18896050321584978,-0.5052501684725484,3.2588757227511076,3.259038193111204,-1.4198308372295898,-2.889651797968363,-0.1321112194193863,-1.3992159842510206,3.2594532203022504,3.2591558169312256,106570089
0,0,0,0,0,0,0,0,0,0,0,0,0.8081303248560815,-0.028083768854590515,-0.8535653774220201,-0.8402624774292083,3.258854479653177,3.258701057279236,-0.9453859144909279,-2.5199219727423157,-0.14833347181480785,0.5902288544450824,3.259077925572148,3.2590763520093384,106571308
0,0,0,0,0,0,0,0,0,0,0,0,1.0418299724853004,-0.2416209628130153,0.7490642844515185,-0.15358602447343164,3.2587604592753,3.2583961794848655,0.4620035483841357,-2.451902753341526,-0.14006203890586363,0.9300279414687086,3.2593021582725235,3.2588674615463566,106572527
0,0,0,0,0,0,0,0,0,0,0,0,0.9241868763192744,0.5559995360373897,-0.027250567346878925,-0.22847699266397864,3.2586802075720076,3.2588973592397403,-0.14103096020590786,-2.2273954662556013,-0.13385039971475596,1.1105702770436139,3.2592639993743893,3.2593100260865717,106573746
0,0,0,0,0,0,0,0,0,0,0,0,-0.4495562731690732,0.2089738618104293,1.1668515046657923,-2.3145515697659933,3.2587435434750964,3.2588328431645444,0.23701199734353987,-2.195061897642838,-0.12832286695514522,0.8646947937839977,3.25905864942773,3.2591613244010595,106574965
0,0,0,0,0,0,0,0,0,0,0,0,-1.252493840753298,1.0663370330735482,-1.6269829066971428,-1.471657308537639,3.258776588294099,3.2586872886046514,-0.1061792977069971,-2.1255151421445775,-0.13098258149416225,0.5907552112049116,3.2591672252615957,3.2594516467394405,106576184
0,0,0,0,0,0,0,0,0,0,0,0,0.005997241258292348,-0.8648556905812849,-1.2797448014908792,-1.2982766507001697,3.2588698218905714,3.25871639951663,0.8441354088944684,-2.060590334008972,-0.14085472117122663,0.668335791627859,3.259378476068792,3.2592667531093062,106577403
0,0,0,0,0,0,0,0,0,0,0,0,0.16897625553324883,-0.833638958172674,-0.9648296433484128,-1.3427392414497423,3.2587710808242654,3.2586597512554825,0.6198598289322649,-0.6213452722245779,-0.1069011696459257,2.49488383470581,3.2592034172062174,3.2590861867768988,106578622
0,0,0,0,0,0,0,0,0,0,0,0,0.41683757505864794,-0.34643204765701857,-1.0393720673766216,-1.2312806405163574,3.2588918517699064,3.2585735986916537,1.3896707522476615,-3.203231001285434,-0.14980514643253642,-0.12439446740084498,3.2595960211272264,3.259373755380363,106579841
0,0,0,0,0,0,0,0,0,0,0,0,0.7677877149328844,-0.6274817737915246,-1.1197724723544682,-1.2887290583525965,3.2586408685017663,3.258821434834174,-0.4351778429958633,-1.5569951602214767,-0.10957858676655134,0.7190355919641962,3.259321041026239,3.259197122954979,106580875
0,0,0,0,0,0,0,0,0,0,0,0,0.5848952633017616,-0.8266633542374795,-0.9682218513753237,-0.8318183460019046,3.258702237451343,3.258679420790603,0.2870607360673828,-1.0107355845851402,-0.14625518873395785,0.6901123273506554,3.2588383506343783,3.2591294597541642,106581909
0,0,0,0,0,0,0,0,0,0,0,0,0.7807904578197548,-0.6758385391042875,-0.7878427729419198,-0.6075101146114009,3.2588678549370593,3.25863654120404,-0.6337803523278657,-2.1932503334582245,-0.10759117693795883,0.5415133168117185,3.25934071056136,3.2593654941756123,106582943
0,0,0,0,0,0,0,0,0,0,0,0,1.1740273444685154,-0.7321610727502195,-0.2483011303306973,-0.3376311108626259,3.258736069051751,3.2586396883296596,0.43318767943235387,-1.752889567958065,-0.1167764564486094,1.1251501232564596,3.259184534452502,3.2588556598252842,106583977
0,0,0,0,0,0,0,0,0,0,0,0,1.6792240118055357,0.07339018266083988,0.3527365270538958,-1.0438921265473515,3.258850545746153,3.2587883900151713,0.5170782467220124,-0.9328363576932379,-0.14362969918605079,1.3116995348572176,3.259466595586132,3.25906848419529,106585011
0,0,0,0,0,0,0,0,0,0,0,0,3.156328601399493,0.2537798826432088,0.2862684471927222,1.5024047258382707,3.2590393732833114,3.2587923239221954,0.5256478697833858,-1.4460125620380118,-0.12318911828865031,0.4828866938217513,3.2591774534198583,3.2591967295642768,106586044
0,0,0,0,0,0,0,0,0,0,0,0,1.315439893655764,1.3909583200166606,1.101745343416374,0.7081099519860686,3.2586530636135413,3.25870341762345,-1.2131189719580378,-1.4367580457637363,-0.13719500746667473,0.18291290794764853,3.259230561164684,3.25926085224877,106587078
0,0,0,0,0,0,0,0,0,0,0,0,0.7092177402040648,0.9461003120065107,0.71343056123621,0.21221776154253022,3.2588890980349894,3.258596415352394,-0.7356901807415701,-2.0185498498141583,-0.14143615262939366,0.557499534785692,3.259496493279516,3.2593029450539284,106588112
0,0,0,0,0,0,0,0,0,0,0,0,-0.1135156409163047,0.41029194716119133,-0.08422691634022192,-0.8377986714599933,3.259042127018228,3.258712465609606,0.7355115813626744,-2.5837240438132336,-0.1245510369004055,1.1566516705336176,3.2589378784820884,3.258969743128984,106589146
0,0,0,0,0,0,0,0,0,0,0,0,-0.48448149972933524,-0.6251788646195965,-1.2312475956973548,-1.8402911472667631,3.258662504990399,3.258402473736104,1.2136921422114542,-0.5668551524704876,-0.1375455185825251,0.6768660756189914,3.259496886670218,3.2590700577580995,106590180
0,0,0,0,0,0,0,0,0,0,0,0,0.44195635818914863,-0.5879224047568327,-1.0813342668216546,-1.3180740377991245,3.2587167929073324,3.259290356551451,-0.4682647548037475,-1.532779602143717,-0.13817612387849376,0.26812526799741604,3.259118051423794,3.2588167141457456,106591213
0,0,0,0,0,0,0,0,0,0,0,0,0.9210629607514095,-0.6726241436748676,-0.7606815052844887,-1.101556909269918,3.258789570187279,3.2587219069864637,-0.030374482914743768,-1.8070173748752325,-0.1082186351083082,1.118306698597276,3.2589862655384856,3.2591019224049953,106592247
0,0,0,0,0,0,0,0,0,0,0,0,0.5704082572946856,-0.27090575348207396,-0.4586270759853215,-1.2138951318138993,3.258786423061659,3.2586428354552783,-0.06869585140894072,-2.0207426095894108,-0.12367456241542844,1.6480981526491822,3.2594819378235265,3.2592734407512474,106593281
0,0,0,0,0,0,0,0,0,0,0,0,0.34075266608627625,-0.12030910495628176,-0.5699959838385562,-0.8312432087949763,3.2590712379302067,3.258933551184362,-0.34513267816694715,-1.5980875728234736,-0.11983821628549293,0.633505765617581,3.2594142746227113,3.2590429137996333,106594315
0,0,0,0,0,0,0,0,0,0,0,0,-0.03069942363493724,0.813865961297269,-1.918229319838204,0.3604371500536382,3.2588737557975955,3.2588717888440835,-0.20421580126473918,-1.7787266825111725,-0.13093380104706298,0.3695665680845461,3.2589174221655632,3.258797044610625,106595349
0,0,0,0,0,0,0,0,0,0,0,0,1.5248637944297545,-1.3662891824590184,0.991438983850358,-2.8286955152387043,3.2589398454356004,3.2586168716689192,-0.7888793574427791,-1.8062715061034567,-0.14701561296172297,-0.3136531607691241,3.2592746209233545,3.2591251324564374,106596382
0,0,0,0,0,0,0,0,0,0,0,0,-0.2355635327772537,-0.1967496391236352,-0.6092075954923147,-0.3732856837851624,3.2586672256788285,3.2586133311525973,0.04610932422987511,-2.2197786354754725,-0.13488029657367429,0.20737551538652366,3.259341103952062,3.2588890980349894,106597424
0,0,0,0,0,0,0,0,0,0,0,0,0.07554006284952913,0.19842272978099937,0.2271512659968455,0.19936922781100602,3.258732921926131,3.2586636851625066,1.0702064240224867,-1.3058698780381532,-0.15676226100471746,1.7811200715446556,3.2590224574831073,3.2586483429251123,106598465
0,0,0,0,0,0,0,0,0,0,0,0,1.0217560317225494,0.3386720226612118,-0.0844232183007262,-0.6352811378575728,3.2590082954178206,3.2588064859874826,0.7350945872181162,-0.14190704130018247,-0.13645385938332788,0.724553683346949,3.2589673827847694,3.2592879962072363,106599507
0,0,0,0,0,0,0,0,0,0,0,0,0.8300921475997147,0.04275724205461049,-0.368987890361296,0.06640041666035851,3.258494527160469,3.258634574250528,0.5366753979534385,-2.0332516471447524,-0.14023277047071103,-0.41479863104803927,3.259029538515751,3.259198696517789,106600548
0,0,0,0,0,0,0,0,0,0,0,0,1.0524896803485966,0.8064340241472749,0.3448620253636867,0.5024468663271506,3.258900506365359,3.2588694284998687,0.3569442340069096,-1.2391362594528508,-0.1478590426276973,1.3953166956086986,3.259356052798754,3.2591558169312256,106601590
0,0,0,0,0,0,0,0,0,0,0,0,0.9356152696150862,-0.41768454524094406,-0.5539338414590169,-0.7067783244583993,3.2588603805137133,3.2586282799992894,0.8745256274373087,-0.8579072306045569,-0.12989052890426264,1.7551503843248348,3.2594020795109366,3.259230561164684,106602631
0,0,0,0,0,0,0,0,0,0,0,0,-0.03308769858928902,-0.3160559911794652,-0.6340494315683164,-1.2102354181093475,3.2587758015126944,3.258747083991418,0.5970266457827861,-1.4417773177358288,-0.13145189660214146,0.7968046065335996,3.259126706019247,3.259075565227933,106603673
0,0,0,0,0,0,0,0,0,0,0,0,-0.48165105362547084,-0.005232096342098277,-1.3871172531982963,-1.4160393376397298,3.258942599170518,3.258519310774721,-0.02090202819133141,-1.568030162814875,-0.13604473305281795,1.2956983680365524,3.259495706498111,3.259144015210153,106604714
0,0,0,0,0,0,0,0,0,0,0,0,1.3876172527810635,-1.822934356085581,0.4698044860129935,-1.9040011649133164,3.2586546371763507,3.258584220240619,-0.11355537337724844,-1.8032164339085142,-0.14526935163370985,-0.16531496826588726,3.259193582438657,3.2587348888796432,106605756
0,0,0,0,0,0,0,0,0,0,0,0,0.8627431825093248,-0.4888941632383064,-0.4335964123721614,0.5837697725021568,3.258573992082356,3.258363528056565,-0.6260093123923912,-1.9206388378904864,-0.11885473952945942,-0.1486745415538003,3.2587577055403836,3.258824188569091,106606797
0,0,0,0,0,0,0,0,0,0,0,0,2.9649216014053343,0.7753329486051735,1.2142542975252029,1.2318333544532483,3.25880609259678,3.2587793420290163,-0.11032052163130303,-1.908552301949537,-0.13219461824829795,-0.10177135488645492,3.2593182872913227,3.2593068789609525,106607839
0,0,0,0,0,0,0,0,0,0,0,0,1.8189980887172328,0.5319008149982469,0.23057455188924691,-0.211471499380052,3.258942205779815,3.258949680203161,-0.9607761455507452,-1.0480872449978882,-0.11382091210137749,-0.36498710691775166,3.259149129289285,3.25905707586492,106608880
0,0,0,0,0,0,0,0,0,0,0,0,-0.34713503684223135,-0.2258322269716533,-0.8555299705898726,-1.6470832046369557,3.258563370533391,3.2584606955600615,0.1161541123573914,-2.3524288001571656,-0.10736104337704698,0.4795515274466905,3.2590429137996333,3.259193189047955,106609922
0,0,0,0,0,0,0,0,0,0,0,0,-0.9358981175301215,-0.3119965925212613,-1.0966591950248712,-1.5348527711454356,3.25876203283811,3.2589768241616275,-0.40223333862225275,-1.7535646264034064,-0.11740116088404189,-0.14114858402592945,3.25940916054358,3.259406406808663,106610963
0,0,0,0,0,0,0,0,0,0,0,0,-0.03215064193614029,-0.2693459593470048,-0.8706515157999415,-1.2052220469977912,3.2590059350736063,3.258859987123011,0.3049368029757503,-2.102707922781458,-0.12299714362587257,0.6562944956176872,3.2593344163101214,3.259440631799773,106612005
0,0,0,0,0,0,0,0,0,0,0,0,0.761534376327321,-0.2659616191341423,0.17065209992552993,-0.16050104624045447,3.258527965370174,3.2585122297420774,0.34910002340078633,-1.1213873411878754,-0.14972135421292235,0.8234489588080595,3.259303731835333,3.258802945471161,106613046
0,0,0,0,0,0,0,0,0,0,0,0,1.263960786337946,0.3826719859447462,0.30265513690175255,0.10925089231144097,3.2585570762821527,3.258780128810421,0.08576271364244385,-1.7816775061699754,-0.12746960252161055,-0.7582755277485284,3.259128672972759,3.2593029450539284,106614072
0,0,0,0,0,0,0,0,0,0,0,0,0.7295080458531434,0.25063865788443773,0.08918206562782116,-0.7144521968903775,3.258911127914325,3.2584941337697666,0.5573075601229143,-2.061698909008373,-0.12043420319964923,1.383536217634227,3.259208531285349,3.259203023815515,106615098
0,0,0,0,0,0,0,0,0,0,0,0,-0.02590713809813715,0.18815247871309265,-0.1133397952723259,-1.2007692576371738,3.2584048340803182,3.2586133311525973,-0.22644316273250134,-1.9893114792479847,-0.12731972066399103,0.3637593345355194,3.2590468477066574,3.259088153730411,106616124
0,0,0,0,0,0,0,0,0,0,0,0,1.1831426004341363,-0.6739600985002634,0.5052226311233795,-0.22283026252153665,3.258911521305027,3.25840994815945,1.1717492189108394,-1.3353017968299146,-0.14090350161832588,1.307041002159238,3.259448106223119,3.2590692709766946,106617150
0,0,0,0,0,0,0,0,0,0,0,0,0.7199986124037041,0.42445912652720524,0.4497348725479689,0.006780482146797435,3.258757312149681,3.259097201716566,1.2533231083539853,-1.4014264466078812,-0.1493031798962569,0.9194225215223456,3.2592938970677725,3.259292716895666,106618176
0,0,0,0,0,0,0,0,0,0,0,0,0.7496181785605166,-0.07122928753248305,-0.5407218147184628,-0.8503533423368147,3.2586762736649835,3.258229381827042,0.7813868381246135,-0.5923008432746939,-0.1297925746193617,1.4187100671184143,3.25911254395396,3.2591243456750325,106619202
0,0,0,0,0,0,0,0,0,0,0,0,0.3278494510471166,-0.19493807493902146,-0.3564572163173218,-0.7202779198024176,3.2589237164168017,3.2589245031982066,0.13015685440979652,-2.2872895940887443,-0.13735747782677146,-0.20551163023848892,3.2596495222627544,3.2590995620607806,106620228
0,0,0,0,0,0,0,0,0,0,0,0,0.7173719426836899,0.06611678196391844,0.28311778105709323,-0.04551727122274294,3.2589929531804263,3.2587502311170375,0.05913763751240223,-2.1453577691743098,-0.11516355456871444,-0.3666098435652069,3.259259672076663,3.2592860292537242,106621254
0,0,0,0,0,0,0,0,0,0,0,0,1.0553095049034957,0.07065021641853052,0.07057547218507197,0.7214872028216365,3.2585177372119114,3.2582498381435676,-0.963575513789119,-2.182820365765138,-0.1249027281883631,-0.5229299334204118,3.2588643144207374,3.2588462184484266,106622280
0,0,0,0,0,0,0,0,0,0,0,0,1.7679820022561552,0.6079243550210423,0.7309639848427754,1.337123589172791,3.2587832759360404,3.258793110703601,2.734222738054125,1.1621410443950944,-0.12963285799418187,3.259418601920438,3.259408373762175,3.2589339445750642,106623306
0,0,0,0,0,0,0,0,0,0,0,0,1.6537499968707556,0.32299264943512074,-0.4022176029941562,-1.133116284980331,3.2586597512554825,3.2587817023732306,2.451552242225676,0.005015338065068491,-0.10317182578704663,0.12904945958250277,3.259144015210153,3.2590814660884693,106624332
0,0,0,0,0,0,0,0,0,0,0,0,-1.0501065194733763,-1.3954382533357446,-1.3901742923467506,-2.7061236269621403,3.2588828037837505,3.2585724185195466,-1.0276529583517262,-2.6739981620309545,-0.11625914767493577,0.029687229357627555,3.259117658033092,3.259276194486164,106625358
0,0,0,0,0,0,0,0,0,0,0,0,0.5557831711510623,-2.0207858825666762,-0.32390885638104155,-2.248815590002011,3.258740002958775,3.2588371704622707,-0.4866408212948824,-1.5453142100947153,-0.12413915683497868,1.1206796313142338,3.259507114828481,3.2594650220233228,106626384
0,0,0,0,0,0,0,0,0,0,0,0,-0.136962120170846,-0.9376101538670246,-1.417091264377983,-1.4827170947452897,3.259001214385177,3.258580286333595,1.080013654233653,-0.5410849143367904,-0.11098889243470339,1.6843664150674835,3.2592470835741856,3.2594532203022504,106627410
0,0,0,0,0,0,0,0,0,0,0,0,0.5349885386214898,-0.7366107149852175,-1.430925241819053,-1.7708014334203521,3.2588112066759116,3.2587793420290163,0.7372790857886178,0.13221782829974033,-0.13339367310925399,0.884882031069044,3.2589622687056385,3.259321041026239,106628436
0,0,0,0,0,0,0,0,0,0,0,0,0.2184474967059489,-0.33116022719862787,-0.7367255850703222,-1.2662003596067857,3.258994133352534,3.258791537140791,0.9487014113308682,-1.6573774525377096,-0.10944011323930182,0.4684036217216994,3.2594823312142287,3.259287602816534,106629462
0,0,0,0,0,0,0,0,0,0,0,0,0.20071973809239127,-0.22788139914052477,-0.40778250787049625,-0.49895158993620753,3.2590983818886734,3.258415849019986,-2.3497985899208294,-2.616858949286812,-0.09616160347003977,-1.3626216009404184,3.2591526698056064,3.2589142750399436,106630497
0,0,0,0,0,0,0,0,0,0,0,0,0.9144724863138778,-0.05854715806807972,-0.44469868477567254,-0.24021931174031635,3.2583532998983022,3.258708925093284,-1.4974448558622424,-2.439942102425349,-0.10954082125911965,-0.7208817745306222,3.2589823316314614,3.259138901131022,106631532
0,0,0,0,0,0,0,0,0,0,0,0,1.4516529979292152,0.2259191663168867,-0.19573311754859896,-0.14208210016275646,3.2586361478133377,3.2588056992060777,-1.8065476663765507,-2.5032689575277516,-0.11683900557029314,-0.7641146259444506,3.2592887829886417,3.25948901885617,106632567
0,0,0,0,0,0,0,0,0,0,0,0,1.4398870754107325,-0.39441312484897667,0.19264814766027302,-0.9096436154417533,3.2592163990993974,3.258782489154635,-1.3088045726781574,-2.8792997216343545,-0.10528551403111386,-0.8223077323803581,3.2589418123891125,3.2592368554159226,106633601
0,0,0,0,0,0,0,0,0,0,0,0,-0.08385752247065573,-0.016192748092740548,-0.19248685747228353,-0.9219362881107673,3.258832449773842,3.2589988540409625,-1.3663442571573563,-2.758966619845226,-0.12964780684087357,-0.40024986270068436,3.2593489717661104,3.259343464296277,106634636
0,0,0,0,0,0,0,0,0,0,0,0,0.32811498977124565,0.2108487618981316,-1.7153966802831506,1.2009934903375494,3.259156997103333,3.258723087158571,-0.7389572905251134,-2.379208085442553,-0.10753649563032336,-0.38679078659901456,3.2591507028520943,3.2594547938650598,106635671
0,0,0,0,0,0,0,0,0,0,0,0,-1.3846042733912793,1.454460233981637,-0.1518350424569896,-0.1959486956535215,3.259197122954979,3.2587411831308817,-0.09922021618130399,-2.251075619587376,-0.12499753534764473,0.43123567476697855,3.259156210321928,3.2591833542803945,106636706
0,0,0,0,0,0,0,0,0,0,0,0,2.696690511308969,0.4509437621764853,0.593967246290117,0.5457914407004643,3.258485479174313,3.2582966516371545,0.5018382909105171,-2.04783346031111,-0.13847274046811348,0.04767501922548047,3.259311993040084,3.2591817807175847,106637740
0,0,0,0,0,0,0,0,0,0,0,0,1.6242295651709515,0.9458509023011806,0.5883866057856805,0.060697431647471385,3.258997280478153,3.2587148259538203,0.7891948567861148,-2.653238934664599,-0.10450109297050153,1.2114317192353867,3.259062976725456,3.2591625045731667,106638775
0,0,0,0,0,0,0,0,0,0,0,0,0.3118880166873952,-0.17828663328726688,-0.15463716443028025,-0.013944913619150354,3.2587687204800506,3.258310420311739,-1.0794869040831214,2.0887818919160237,-0.13643261628539755,1.6940894596683334,3.2590574692556222,3.259177060029156,106639810
0,0,0,0,0,0,0,0,0,0,0,0,0.1284184608958317,-0.49333593765925615,-1.074899968492981,-1.0078237066058764,3.258679420790603,3.2587388227866674,2.0947826736906374,-0.0832902530777756,-0.13589760493011532,1.8166652818519213,3.25921521892729,3.25887611614181,106640845
0,0,0,0,0,0,0,0,0,0,0,0,-1.276382884548054,-0.721314504303277,-1.1043562775082918,-1.2217381622479153,3.2593839835386254,3.2592002700805986,1.1699773871871695,-0.0467544849818331,-0.13576935956112857,1.5605427575758404,3.2591593574475475,3.2591208051587106,106641879
0,0,0,0,0,0,0,0,0,0,0,0,-1.498425185492657,-0.8845625978186843,-1.000310730971185,-1.3515220822718241,3.2590157698411666,3.2586691926323406,-0.8668816526987139,-1.5423114588631939,-0.14041569714733326,-0.14007659436185294,3.2594658088047277,3.259037012939097,106642914
0,0,0,0,0,0,0,0,0,0,0,0,-1.250782197807097,-1.0055699712717499,-1.2566079207191372,-1.7258899838793258,3.258789963577981,3.2584182093642005,-0.8803698397123622,-1.5244098215591693,-0.13033073310026325,0.8967337127606525,3.2595145892518267,3.259324188151859,106643949
0,0,0,0,0,0,0,0,0,0,0,0,0.05145707743848293,-0.9882796631192758,-1.3387589143227234,-0.5981411216427233,3.2589036534909788,3.259030718687858,-0.4101389181779525,-1.5014680625758245,-0.1346847813945748,0.6740482180176041,3.259193582438657,3.2591499160706894,106644984
0,0,0,0,0,0,0,0,0,0,0,0,0.7122153773564549,-1.2464261825592733,0.26317247905403124,-3.0599738430945687,3.258706958139772,3.2590598295998365,0.12840626578405687,-1.8052132851139646,-0.12163443823271254,0.8496936261288673,3.2593084525237623,3.2592659663279013,106646018
0,0,0,0,0,0,0,0,0,0,0,0,0.8207727218595411,-0.46796027040007954,-1.186361323161283,-0.7102787149284738,3.2589681695661747,3.2587561319775737,0.2538837377886459,-2.308280135188119,-0.10255026847723346,0.3889752851695162,3.2591585706661426,3.2592407893229467,106647066
0,0,0,0,0,0,0,0,0,0,0,0,0.1195616626216963,-0.08710102881205424,-0.0867064579375336,-0.08075327643791157,3.258745117037906,3.258782489154635,0.1011517645301538,-1.611866082175503,-0.09557938523046793,1.3133498088538418,3.2586628983811017,3.2587006638885336,106648113
0,0,0,0,0,0,0,0,0,0,0,0,1.3916699637973264,0.38310432232669855,0.24851867538913194,0.10788740013687612,3.258695943200104,3.2585676978311175,-0.09799205040836935,-2.506593502353847,-0.13839602928114286,-0.3391590403507996,3.2591184448144963,3.2593839835386254,106649160
0,0,0,0,0,0,0,0,0,0,0,0,1.8199437999658346,0.5111974491116343,0.28707725847688415,0.22413002540231053,3.2590539287393003,3.258497674286088,1.6759836525897565,-0.5229362276716504,-0.13559902138698354,0.7609887434230737,3.259431190422915,3.2592372488066252,106650207
0,0,0,0,0,0,0,0,0,0,0,0,1.7617101742875783,0.2850705725038734,0.12849674564561195,-0.3483537612383081,3.2588151405829358,3.2589292238866356,-0.23142270224365022,-1.4963012690903268,-0.13293497955024,0.6549852913600552,3.259235675243816,3.258937091700684,106651254
0,0,0,0,0,0,0,0,0,0,0,0,3.232475272712144,0.050018841030459525,0.22701515281381043,0.18796207761312456,3.2587966512199222,3.258700270497831,-0.2634883717880692,-0.9960090036402944,-0.1377807662225683,0.7453931624165967,3.2592793416117836,3.259096021544459,106652302
0,0,0,0,0,0,0,0,0,0,0,0,2.99441292219316,0.7277279529247228,0.3963226433184914,0.5552277034792547,3.2590680908045875,3.2589083741794074,-1.4127442971163149,-2.519396402763891,-0.13213915015925765,0.4587675164660831,3.259383590147923,3.2592215131785287,106653349
0,0,0,0,0,0,0,0,0,0,0,0,0.07565257259041935,0.16371229454425507,0.09484885869608624,-1.070359846396428,3.258638508157552,3.2586947630279974,0.72218704488123,-1.0178571364709301,-0.14359114689721428,1.9387812303043876,3.259195549392169,3.2589579414079117,106654396
0,0,0,0,0,0,0,0,0,0,0,0,-0.7962393040942316,-0.8911160935301892,-0.005263174207588935,-2.2521991434334687,3.2584630559042758,3.2585492084681045,0.8546672647794801,-1.1167079587826678,-0.12238030700448835,0.827221575644204,3.2589842985849735,3.2591625045731667,106655443
0,0,0,0,0,0,0,0,0,0,0,0,-1.7549800461506897,-0.4270924838891606,0.5124700680339418,-0.4765295000707507,3.258900506365359,3.2588316629924368,0.28393800067162517,-1.9715707387412476,-0.12048809772587987,0.32345842402677816,3.2591223787215204,3.2592848490816175,106656490
0,0,0,0,0,0,0,0,0,0,0,0,0.7007503987253186,0.4656872589215349,0.09525169077535758,0.7359576864192112,3.258760065884598,3.2588025520804584,-0.2970532532993857,-2.651567024179342,-0.13288737927524796,0.22932829014400125,3.259149129289285,3.2587341020982388,106657538
0,0,0,0,0,0,0,0,0,0,0,0,0.7820103623879388,0.6354715389575408,0.9322006383181379,0.6795950269216331,3.258865101202142,3.2589532207194827,0.5405443955116743,-2.2877954945320482,-0.1279782566998311,0.8668061216838504,3.259326155105371,3.259028751734346,106658585
0,0,0,0,0,0,0,0,0,0,0,0,1.1022083642731146,0.466831239084153,0.3488352714580621,0.38695129000559925,3.259084613214089,3.258912701477134,1.6295340454022937,-0.3788242314844407,-0.1348193210148002,1.8517309488929448,3.259235281853113,3.259467382367537,106659632
0,0,0,0,0,0,0,0,0,0,0,0,0.09349087399135518,-0.15144715922440996,-0.46880645380097075,-0.8563230462459381,3.25907989252566,3.2587435434750964,2.215012707115734,-0.1256777078721175,-0.12675874552234956,2.7176645299988422,3.259267539890711,3.2594559740371674,106660679
0,0,0,0,0,0,0,0,0,0,0,0,1.0269373806640363,-0.9839606265974792,-1.6920304527319017,-1.707969857212288,3.25881750092715,3.2589886258827,2.2407377053186543,-0.16308798349952502,-0.1286423002055049,0.9645637112335814,3.259260065467365,3.2593084525237623,106661726
0,0,0,0,0,0,0,0,0,0,0,0,-0.31697652542311255,-1.6313688196383498,-2.215491856991274,-2.3066585787127707,3.258949680203161,3.2591188382051985,-1.1650218445088678,-1.8240374236151484,-0.10665608723832216,-0.0063351638716654625,3.2592879962072363,3.2591983031270866,106662773
0,0,0,0,0,0,0,0,0,0,0,0,0.3025131228581813,-0.9050141936557523,-2.1693042480116187,-1.4834594230007436,3.258965022440555,3.2583666751821845,-1.7009037734155383,-2.138058404691029,-0.15512103499424873,1.2922868838652233,3.25952167028447,3.258959908361424,106663793
0,0,0,0,0,0,0,0,0,0,0,0,0.2220340397398519,-0.8432817510702313,-1.5190121077313552,-1.4878457293326532,3.2586408685017663,3.2586235593108603,-1.0273657831389644,-2.084130046859985,-0.1313893474804577,-0.00804641342716377,3.2595389794753764,3.258974463817413,106664813
0,0,0,0,0,0,0,0,0,0,0,0,-0.37709016526820244,0.10429652980524656,-1.0959286684904896,-0.36795996045588975,3.2586656521160187,3.258684928260437,-1.4717918481578645,-1.9620447828823069,-0.14495935976020807,-0.692165433426551,3.2590853999954934,3.2593926381340785,106665833
0,0,0,0,0,0,0,0,0,0,0,0,1.659810180641434,-0.25047264700801936,0.2587830255965025,0.04763095946681016,3.258811600066614,3.2584961007232787,-0.5248512536109987,-1.2331307569898076,-0.13835196952247256,1.141098182332299,3.2592262338669578,3.2593147467750008,106666853
0,0,0,0,0,0,0,0,0,0,0,0,1.1625505641163068,0.07371512338103334,0.2486410198975825,0.004422104885829077,3.258497674286088,3.258986658929188,1.4301675713262045,-1.1157638210968757,-0.12673474868950232,0.8801314449466997,3.25946620219543,3.25946462863262,106667873
0,0,0,0,0,0,0,0,0,0,0,0,2.4972433921388855,0.44063377864763476,0.26669765313835775,-0.03925842514734568,3.2587718676056703,3.2584551880902275,0.19286608610941003,-1.0609452201062703,-0.09738858907086718,-0.8828965881939635,3.258968562956877,3.259025604608727,106668893
0,0,0,0,0,0,0,0,0,0,0,0,1.3198557042903547,0.7125281229648736,0.6174227735308139,0.49476630625323126,3.2588359902901636,3.2587557385868715,2.7964402313757217,-3.1993596433829836,-0.141341345470112,0.35063778765652026,3.25915817727544,3.25906848419529,106669913
0,0,0,0,0,0,0,0,0,0,0,0,0.7053003555894322,0.5891930567256279,0.5404067087658296,0.11072099336635986,3.258929617277338,3.2586314271249086,0.9918292274271521,-0.487794636225061,-0.13096723925676812,1.3681094012390853,3.259285635863022,3.258974463817413,106670933
0,0,0,0,0,0,0,0,0,0,0,0,1.5455152327436485,0.5378677651724535,0.7297932541123932,0.549672633370475,3.2584791849230745,3.2585421274354607,0.18030000690221867,-1.1603294802104807,-0.11836614827706197,0.5777528617087438,3.259046060925252,3.2585704515660345,106671953
0,0,0,0,0,0,0,0,0,0,0,0,1.4279350790900085,-0.20309345759075373,-0.4493823944786065,-0.9830259302885448,3.259007508636416,3.2589547942822925,-0.9731888023839953,-2.266128714815225,-0.10778551194495105,-1.3273922833671907,3.2589016865374667,3.2590322922506676,106672973
0,0,0,0,0,0,0,0,0,0,0,0,1.1050399905490864,-0.715433706692899,-1.0950860256059198,-1.3786353562635607,3.2584477136668815,3.258404440689616,-1.472603806567646,-2.3213706042016273,-0.12449753576487728,-0.35560867257221607,3.259258885295258,3.259462661679108,106673993
0,0,0,0,0,0,0,0,0,0,0,0,-0.8670244535236898,0.284043429379872,-1.4487297116195812,-2.250085455189401,3.2590059350736063,3.258873362406893,-0.7419942667477448,-1.6700922334304131,-0.09143462078984031,0.8669084032664779,3.2590141962783568,3.2587667535265386,106675013
0,0,0,0,0,0,0,0,0,0,0,0,-0.1780085060606606,0.28929755560130543,-1.278798696851575,-1.0786450479799568,3.2587266276748927,3.258974463817413,1.6056615240170389,-0.40995441793852067,-0.13020681502900303,3.0376229569462487,3.2591243456750325,3.2591019224049953,106676033
0,0,0,0,0,0,0,0,0,0,0,0,-0.4102266443045907,0.20937669388970062,0.21124372616335463,0.21180706164921065,3.258763999791622,3.2585216711189355,3.073453768903466,0.8729213801528668,-0.13452427798799013,2.6686559162921806,3.259355659408052,3.259417815139033,106677053
0,0,0,0,0,0,0,0,0,0,0,0,0.9091711532081548,0.039769439669780686,0.009031463746006935,-0.12268990548728768,3.258730561581917,3.2590673040231826,-0.26907412637163713,-2.8793882345423976,-0.12319934644691305,-1.3498045384650872,3.2591503094613916,3.2590492080508717,106678073
0,0,0,0,0,0,0,0,0,0,0,0,1.0746446579271147,-0.25022756460041573,-0.4130618110968841,-0.7728187886260496,3.258939058654196,3.258882017002346,0.3546838110308421,-2.7790405606079767,-0.10852469307478584,-0.04256054670340379,3.2592167924900997,3.2595020007493494,106679092
0,0,0,0,0,0,0,0,0,0,0,0,-0.12214309241093306,-0.7924548855370146,-1.3388167427559785,-1.6220564749308197,3.2587667535265386,3.2583906720150315,-1.409984661338885,-2.4300314104594483,-0.13218989755986899,-0.4434567503281534,3.2591908287037406,3.259184534452502,106680186
0,0,0,0,0,0,0,0,0,0,0,0,-0.7766067476995883,-0.4117754234999923,-0.46429308227218175,-0.8377652332502882,3.2588186810992577,3.2585893343197503,-0.24985108969820613,-1.9380825684169016,-0.12743655770260784,0.22478266057761437,3.258927650323826,3.2589461396868393,106681279
0,0,0,0,0,0,0,0,0,0,0,0,0.33070035346750654,-0.04290948425644448,0.6288728033152584,0.9025161626954272,3.2587301681912146,3.258883590565156,0.058099086058030845,-1.403690803490973,-0.11783625100091112,0.45462078507194337,3.2589012931467645,3.2594382714555588,106682373
0,0,0,0,0,0,0,0,0,0,0,0,2.9787547920649993,1.1137834923009267,1.488299702203238,1.2942361347956817,3.2589213560725874,3.2586357544226354,-0.6889734612671686,-2.3395865606768798,-0.11235002426505378,-0.6744998305439747,3.2591829608896923,3.259002001166582,106683466
0,0,0,0,0,0,0,0,0,0,0,0,2.6460213954474203,0.47363689823590494,0.3215272690686308,-0.35336477200565003,3.258774621340587,3.2588828037837505,-1.233581976125476,-1.91816834427933,-0.14157305259383351,-0.5113516582669804,3.259265572937199,3.259256131560341,106684560
0,0,0,0,0,0,0,0,0,0,0,0,0.8305520213308359,-0.3322514930071226,-0.18956514472545918,-1.6475403246331601,3.2589587281893166,3.258539373700544,-0.8034466151531475,-2.2181464574511596,-0.13699949228757527,-0.10682799897527682,3.259206564331837,3.2592860292537242,106685653
0,0,0,0,0,0,0,0,0,0,0,0,-1.8208297158276694,0.14242592363666576,-1.716810133076922,-1.6230191019796252,3.2591884683595262,3.258690042339568,-0.04975526925984254,-1.6346851032596947,-0.13665016134383218,0.22988336442510657,3.2594618748977036,3.2590393732833114,106686747
0,0,0,0,0,0,0,0,0,0,0,0,-0.0671663483579574,-0.6326686302028454,-1.1143177168748042,-1.1275950464719589,3.25883048282033,3.2585114429606725,0.7092488180695555,-0.6558236069468983,-0.12172491809426762,3.215465058739788,3.259664077718744,3.2590244244366193,106687840
0,0,0,0,0,0,0,0,0,0,0,0,0.5052002078533421,-0.4677136144296663,-0.7065293081437716,-0.7962743158667464,3.2588989328025497,3.258793110703601,2.2797459339792647,-0.9223977354046983,-0.11102390420721818,1.714578821012833,3.2590767454000407,3.259161717791762,106688933
0,0,0,0,0,0,0,0,0,0,0,0,-0.2790202235007552,-0.024478343066971664,-0.6351831835726718,-0.8639910178173801,3.2589583347986144,3.2586231659201577,1.3287518416347315,-2.375535389844822,-0.13334843317847644,-1.1058098561537093,3.2593989323853174,3.258946533077542,106690027
0,0,0,0,0,0,0,0,0,0,0,0,0.8145941274874362,0.3410941292159711,0.17727601257276682,-0.11850658875782355,3.2583005855441787,3.25859090788256,0.17684761009783864,-1.507436979703543,-0.13953568214603448,0.4308159268875035,3.2594233226088667,3.2590004276037723,106691120
0,0,0,0,0,0,0,0,0,0,0,0,0.9163202424431135,0.07352668923457732,0.43688594542574233,-0.2077818879821167,3.258983118412866,3.258894605504823,-0.4433442405872631,-1.0896403181124112,-0.10460022742750971,0.3493938862554891,3.2587738345591823,3.258922142853992,106692214
0,0,0,0,0,0,0,0,0,0,0,0,0.7452716046895509,-0.06225997951745743,-0.01712390388535307,-0.9911313523210706,3.259020490529595,3.258782095763933,-0.31585890243755604,-1.7566720195617698,-0.11808644748764603,0.06742873995646714,3.2593316625752045,3.2593367766543357,106693307
0,0,0,0,0,0,0,0,0,0,0,0,-0.48274782690379936,-0.26845414262463363,-1.613148929256073,-1.6031312350191156,3.2588068793781853,3.258498461067493,0.15242080121288312,-1.677730307308472,-0.11508251608401729,0.6439219646360832,3.259149522679987,3.2591829608896923,106694401
0,0,0,0,0,0,0,0,0,0,0,0,-0.1718688573680946,-0.23873622879221781,-1.5519196333789387,-0.5353602928352704,3.2590444873624427,3.2590680908045875,-0.8862844689231477,-2.5147956984991664,-0.11687991820334412,0.13469461616213513,3.25896580922196,3.2589307974494455,106695494
0,0,0,0,0,0,0,0,0,0,0,0,0.3948753589243124,-1.0274464282329592,0.8587545941775553,-1.9371832772711846,3.2588674615463566,3.2585307191050905,-0.47222423222353843,-2.197819959857459,-0.12316236772088619,-0.24162450332933705,3.2593887042270544,3.25946462863262,106696587
0,0,0,0,0,0,0,0,0,0,0,0,1.484143922822943,-0.5588185738108842,-0.21794395660685975,-0.9214075710067238,3.2584217498805224,3.258708531702582,0.020643963890548213,-2.2024611833645324,-0.10611202789688443,0.4119929685584269,3.2593080591330597,3.259474070009478,106697582
0,0,0,0,0,0,0,0,0,0,0,0,0.021844198923611512,-0.07350938004367112,-0.7316850700002993,-0.5734562484569845,3.2589736770360083,3.2588178943178523,0.17796641325550236,-1.8481672225197818,-0.12112893118011131,0.8694107615245296,3.2590594362091343,3.2588198612713644,106698577
0,0,0,0,0,0,0,0,0,0,0,0,0.09034925584188172,-0.313310517467322,-0.7363396687912546,-0.5637886719451751,3.258727807847,3.2587832759360404,0.26452810341454785,-3.14207999015808,-0.14122726216641213,-1.9127049342042128,3.259257705123151,3.25920381059692,106699571
0,0,0,0,0,0,0,0,0,0,0,0,1.0840510230125215,-0.13080712924088586,-0.5239527492466867,-0.6272823247054009,3.25888595090937,3.258607036901359,-2.483271727951971,-0.35725422588041134,-0.11844089251052052,-0.000763964744086831,3.2592348884624105,3.2594898056375747,106700566
0,0,0,0,0,0,0,0,0,0,0,0,0.5483996210574651,-0.4395224499133169,-0.8030603054833776,-0.5524381700084412,3.258856053215987,3.259018916966786,-0.04397045898085343,-1.9546954577798197,-0.1155376691267096,0.6077524432840875,3.259256918341746,3.258976037380223,106701560
0,0,0,0,0,0,0,0,0,0,0,0,0.3823785164807458,-0.07328947464102203,-0.1991044758682818,-0.2682141742961614,3.2590130161062496,3.25852088433753,1.5011804939723603,-0.6530167642851787,-0.1424798181628964,1.711892355906052,3.2593470048125983,3.2592494439184003,106702555
0,0,0,0,0,0,0,0,0,0,0,0,0.28895255195528885,-0.1271265658291061,0.043711214507962996,-0.33023929956427805,3.258793110703601,3.2586648653346137,0.8620846464734848,-1.245131533757631,-0.1207799936270706,0.6933637015061023,3.259002001166582,3.2590999554514832,106703549
0,0,0,0,0,0,0,0,0,0,0,0,0.4634205416942288,0.34631914452542595,-0.12546252315789738,0.6286918435921482,3.2587777684662065,3.258878083095322,0.7180670640548543,-1.1195100807559586,-0.1451647097068679,0.724144557016439,3.259444172316095,3.259206564331837,106704544
0,0,0,0,0,0,0,0,0,0,0,0,1.5037422542264762,0.7108176601907802,2.1789505814254975,1.0462406690407595,3.2587962578292196,3.2582388232039,0.27976845261674554,-1.4853449446374112,-0.12863797290777837,-0.08316830196002745,3.2592738341419496,3.2588647078114397,106705539
0,0,0,0,0,0,0,0,0,0,0,0,2.407949996942281,2.4046108966601967,0.2369809194780492,3.253447324448505,3.258419389536308,3.2589634488777453,-0.6899628388837383,-1.4986816762306303,-0.11704435551695293,0.32847022157552497,3.2585653374869032,3.2590889405118153,106706533
0,0,0,0,0,0,0,0,0,0,0,0,3.2539296214496636,1.368763609977199,2.5232760218710926,2.067680021247866,3.258618445231729,3.258885557518668,0.7026284459386403,-0.6135805265403421,-0.11935670606573892,2.2110512627424312,3.2592451166206735,3.259077925572148,106707528
0,0,0,0,0,0,0,0,0,0,0,0,3.2218438889794214,0.11464231188801668,0.09673949441188506,-0.341964702840412,3.2591727327314297,3.2588552664345816,0.39500989854453783,-0.3816283204112435,-0.10968991633533434,0.8936019293787395,3.2592726539698424,3.2592073511132416,106708522
0,0,0,0,0,0,0,0,0,0,0,0,-0.006961441869907601,-1.30344383757637,-1.661207897807109,-2.368481501159847,3.2587813089825284,3.25871639951663,-2.4365475340542235,-1.6998070001372096,-0.10720132675186714,-0.3325768271180185,3.2590452741438476,3.2591302465355687,106709517
0,0,0,0,0,0,0,0,0,0,0,0,-0.9513520778837296,-1.267705079043517,-1.6711288179312727,-1.7353982371566576,3.258660538036887,3.258791537140791,0.011768676253399401,-0.4694803320742049,-0.11298771059366591,1.6454821044781331,3.2594229292181645,3.2594201754832475,106710511
0,0,0,0,0,0,0,0,0,0,0,0,0.29644821839907387,-0.766075285205279,-1.1937145821707942,-1.6241261034162167,3.2590853999954934,3.2589512537659706,0.6827189424894979,-0.8421869447454148,-0.11354868573530741,1.547275262746246,3.2595189165495535,3.259355659408052,106711506
0,0,0,0,0,0,0,0,0,0,0,0,0.4571841188888691,-0.6784207556749291,-0.7631512121142401,-1.272901770222398,3.258584220240619,3.2586231659201577,-0.18641211824561574,-1.1639888005243302,-0.12201602721405354,0.13151759284944448,3.2592702936256277,3.2590444873624427,106712500
0,0,0,0,0,0,0,0,0,0,0,0,-0.9423446109705699,-0.2320241966276403,-1.157091481338916,-1.3622329309264338,3.2588017652990535,3.258637327985445,-0.7586830805162287,-1.6872464283998523,-0.11957897181260249,-0.13648729759303302,3.2593694280826364,3.2594551872557624,106713514
0,0,0,0,0,0,0,0,0,0,0,0,-0.8173868080838689,-1.377778157923002,-1.4772261473210033,-1.924941745393484,3.2586636851625066,3.2585991690873106,-0.8869803770757171,-1.8914972414371063,-0.10326505938351863,-0.15247666269262586,3.259250624090507,3.2590661238510754,106714527
0,0,0,0,0,0,0,0,0,0,0,0,-1.2009155989784717,-0.25181489608465385,-1.511053813821532,-2.1369514032544377,3.2583312700189673,3.2581821749427524,-0.45257751376360816,-2.3190665148575915,-0.12100579989025591,-0.8596294950997228,3.2590433071903355,3.258902866709574,106715540
0,0,0,0,0,0,0,0,0,0,0,0,1.873935493699967,-1.6815867163642306,0.0822454073721656,-1.4229516056718354,3.258883197174453,3.258938271872791,-0.04655542928641191,-2.5882169590254973,-0.13719146695035303,0.1596226048019653,3.2595086883912905,3.2593859504921374,106716553
0,0,0,0,0,0,0,0,0,0,0,0,1.0402371335312288,0.7077405581165025,-0.48901965487237625,-0.2673007210851575,3.2587738345591823,3.2586215923573483,0.25807570911356315,-2.714657058078892,-0.09641927438012055,0.7774238201885009,3.2592848490816175,3.259281701955998,106717566
0,0,0,0,0,0,0,0,0,0,0,0,1.1191273116025102,-0.38418968727465713,-0.7739360182209036,-1.042305188453816,3.2588647078114397,3.2584846923929085,0.8225311782993291,-1.6337110678805193,-0.1505234778551433,0.8493057428962878,3.2594008993388295,3.2589272569331236,106718580
0,0,0,0,0,0,0,0,0,0,0,0,0.7694403492737232,-0.8998446464353378,-1.305587816904523,-1.0979471561845726,3.259010655762035,3.258963842268448,0.758311326302448,-1.0148901837933284,-0.13124261274845753,1.9044759874911292,3.2592935036770703,3.2594134878413064,106719593
0,0,0,0,0,0,0,0,0,0,0,0,-0.549327236333756,-0.7773608776761147,-1.2203931594363642,-1.692964362259431,3.2588902782070965,3.2586208055759434,0.29972476955947513,-1.9621989920376528,-0.11446292572771617,0.40870068176992913,3.2592002700805986,3.258933551184362,106720606
0,0,0,0,0,0,0,0,0,0,0,0,-0.04085480461773927,-0.9599118661775429,-1.1260246307879245,-1.3063867934211244,3.258638901548254,3.258614904715407,0.21104191673301656,-1.7558407850075703,-0.1411470104631198,1.4931529632989122,3.2592407893229467,3.2587997983455415,106721619
0,0,0,0,0,0,0,0,0,0,0,0,-1.5857095343720358,-0.2868400438833289,-0.7726024237397222,-0.5343469183858536,3.2586235593108603,3.2589709233010913,0.5300628936365716,-0.8493336736361591,-0.12387912558068341,2.136328272381815,3.2589307974494455,3.2589528273287804,106722632
0,0,0,0,0,0,0,0,0,0,0,0,0.8211629654363352,-0.431928829184631,0.054481858549339596,-0.34416769077392706,3.259088547121113,3.258715612735225,2.2936196438812786,0.5030637029485349,-0.13483387647078948,2.9542815630771595,3.2591668318708935,3.259168012043,106723646
0,0,0,0,0,0,0,0,0,0,0,0,1.6847609859420043,0.21103286874686106,-0.5947060340292495,0.18938221804883695,3.2592407893229467,3.2588053058153754,1.1600836110214723,-0.8240425853780013,-0.1223850276929173,0.18134957329625762,3.2594134878413064,3.259168405433703,106724659
0,0,0,0,0,0,0,0,0,0,0,0,2.900686407171059,-1.3749496787726496,1.2681551180070778,-1.0875927195063495,3.2588883112535845,3.2589162419934556,1.337597231578497,-0.6454050475841817,-0.1264936001889229,0.6662543614213897,3.259024031045917,3.2593029450539284,106725672
0,0,0,0,0,0,0,0,0,0,0,0,1.2714112128509536,0.8264816077329644,0.22758792967652436,0.05408964801903343,3.2591223787215204,3.2587128590003083,-0.43656454522187055,-2.2376491949140065,-0.11628275111708057,-0.20300691163622278,3.2591778468105606,3.259383196757221,106726685
0,0,0,0,0,0,0,0,0,0,0,0,1.9752190441154294,0.3080406556177921,0.10306167639037088,-0.43213417913129076,3.2588442514949145,3.25887296901619,0.20257142812865114,-2.1826102951300497,-0.10175797960257287,0.10112580074379453,3.2595972012993335,3.259553534931366,106727698
0,0,0,0,0,0,0,0,0,0,0,0,1.6029675844869118,-0.0021998408078957566,-0.31920901765930865,-0.7356268448384815,3.2584752510160504,3.2586031029943348,-1.5944424145749108,-1.5953790778373573,-0.12037637476639447,-1.594275223526385,3.2592462967927807,3.2590122293248447,106728711
0,0,0,0,0,0,0,0,0,0,0,0,-0.46406570244618683,-0.1267221601870251,-0.5447808199859643,-0.9016680123410239,3.2591243456750325,3.258910734523622,-1.851096409689952,-1.5707673753222673,-0.1101375949546808,-0.934455160433669,3.2592494439184003,3.2589728902546033,106729750
0,0,0,0,0,0,0,0,0,0,0,0,-0.1836756925196281,0.09895861136419908,-0.16787004087806234,-0.6332960883731947,3.2587077449211765,3.25829743841856,-0.3046826725819912,-0.4480818448164278,-0.1504420459797437,0.644456582600663,3.259018523576083,3.259305698788845,106730788
0,0,0,0,0,0,0,0,0,0,0,0,0.15573590466212087,0.17322251477509912,0.03300272619756772,0.04732136098401081,3.2585492084681045,3.258668012460233,-0.457309610522939,-1.3054949766987534,-0.10921194663190205,0.3495016753079504,3.2591231655029254,3.259321827807644,106731826
0,0,0,0,0,0,0,0,0,0,0,0,1.0491242228894497,0.3669103940618508,-0.32317478933033816,-0.09193816088892948,3.25896580922196,3.2590047549014987,-0.5702560150928515,-2.032685164533277,-0.1221824314811744,-0.3675980410096694,3.2594189953111403,3.2588021586897558,106732864
0,0,0,0,0,0,0,0,0,0,0,0,1.9563032455805833,-0.09702273571762272,-0.46690834366182604,-0.5352041167264124,3.2588918517699064,3.2586263130457773,-1.8721081938872566,-2.921613218976643,-0.12099242460637384,-1.2305461800749515,3.2592478703555905,3.2593214344169414,106733902
0,0,0,0,0,0,0,0,0,0,0,0,1.6697783076498875,0.1410203386569427,-0.4352014464380081,1.5551784819577315,3.2589567612358046,3.2588328431645444,-1.0610876275405439,-2.870510979951737,-0.11998298406398106,-0.3702923739304988,3.259167618652298,3.25908972729322,106734941
0,0,0,0,0,0,0,0,0,0,0,0,0.9648190217994477,-2.082222888734685,3.201719200816059,-1.8343186896227228,3.2590232442645126,3.258970529910389,0.7824678757748456,-0.4177097222458985,-0.13934882156238812,2.3096825730422226,3.25940758698077,3.2590853999954934,106735979
0,0,0,0,0,0,0,0,0,0,0,0,-0.43519436540536466,0.5747402757096619,0.2588687847696286,0.0869059070236572,3.2591554235405233,3.2584752510160504,1.7120567932196609,-0.370302995479464,-0.12498337328235784,1.2732436267427951,3.2590893339025175,3.2592073511132416,106737017
0,0,0,0,0,0,0,0,0,0,0,0,0.8249359756631821,0.39546583836863497,0.058529455486471114,-0.40989029525402726,3.258682961306925,3.258727414456297,0.7073050746089309,-1.1687299452698166,-0.13173356434506944,2.021254017502548,3.259075565227933,3.25917115916862,106738055
0,0,0,0,0,0,0,0,0,0,0,0,0.1012922050109154,-0.38812005378246944,-0.7250304728782739,-0.9811431623867943,3.258639294938957,3.2586723397579593,0.9080586443017297,-2.0452075773725005,-0.11840352039379125,0.31685772143098373,3.259193582438657,3.2590299319064533,106739093
0,0,0,0,0,0,0,0,0,0,0,0,-0.5635372952863329,-0.9377557084269176,-0.9741231053022271,-1.5877768025132182,3.2588867376907746,3.2586892555581635,0.07350583952734942,-1.9320876875028237,-0.10919778456661516,0.10055381066248543,3.258871002062678,3.2590802859163626,106740132
0,0,0,0,0,0,0,0,0,0,0,0,-0.1929211608077479,-0.7469564970679876,-1.9471191462420399,-2.43544013922693,3.2586636851625066,3.2587628196195144,0.25304148829477885,-1.5721340146224514,-0.11607543421690872,0.5420668175300142,3.2593257617146683,3.2592238735227435,106741170
0,0,0,0,0,0,0,0,0,0,0,0,-1.1813802100873243,-0.9564134426609805,-1.189878629431561,-0.6307107246769338,3.2587447236472036,3.2587120722189034,0.5139826552847213,-1.425779298040783,-0.10077135572092004,0.23737785069678435,3.2594217490460573,3.2591479491171773,106742208
0,0,0,0,0,0,0,0,0,0,0,0,1.3899181949994797,-0.1667205532456104,-0.625983348606032,-0.4034516696276271,3.259105069530614,3.258622379138753,0.25550608104539885,-1.1808959461326536,-0.11572925039878491,0.4348757189364098,3.2589882324919976,3.259075565227933,106743246
0,0,0,0,0,0,0,0,0,0,0,0,0.8167487283645544,0.14576463052804833,-1.192423080494771,-0.7023695948564523,3.258883590565156,3.258819467880662,0.44086312542714184,-1.0806261635573104,-0.11777566883273945,0.3513482512650789,3.259518523158851,3.2594536136929526,106744284
0,0,0,0,0,0,0,0,0,0,0,0,0.9909224618580892,-0.0010019661190469407,-0.12055733448950463,-2.3854744059412964,3.2587710808242654,3.2587423633029893,-0.21679328880230053,-1.4550027197602653,-0.10727292385970637,0.3554930157057065,3.2593969654318053,3.259083039651279,106745322
0,0,0,0,0,0,0,0,0,0,0,0,2.1286465321357886,-0.5808299637830214,-0.12402113962425465,-0.37342730443803124,3.2588930319420135,3.258752984851954,0.2708223546531623,-1.2437943987601277,-0.11137834923009267,0.9844307284868632,3.259024817827322,3.258896572458335,106746379
0,0,0,0,0,0,0,0,0,0,0,0,0.2587845991593121,0.46208773399445224,0.4274252924234023,-0.03451964074607381,3.2582793424462486,3.258434731773702,-0.4165598412227441,-1.9135137454883748,-0.1105191839360218,-0.3794788336132566,3.259422535827462,3.259110183609746,106747436
0,0,0,0,0,0,0,0,0,0,0,0,1.7206519866766912,1.1080521831574657,1.4077317127861633,1.330432013324739,3.258930404058743,3.2585684846125225,0.031701389753984184,-2.461362226171759,-0.12466472681340297,0.6684203706288779,3.25913693417751,3.259437878064856,106748493
0,0,0,0,0,0,0,0,0,0,0,0,1.5529129449025325,0.802581155607838,1.0149645346360843,0.3490732728330222,3.259195942782872,3.2587486575542277,-0.1963987346170824,-0.5193355225724604,-0.11270722302284515,1.320287253890902,3.259381623194411,3.259062583334754,106749550
0,0,0,0,0,0,0,0,0,0,0,0,0.5657690007411242,0.1701111877097115,-0.36505791724418607,-1.1442370467468557,3.2586998771071283,3.258660538036887,-0.9120700492942391,-2.138314108647598,-0.14107147944825643,-0.05281152162689228,3.25926085224877,3.2593403171706576,106750607
0,0,0,0,0,0,0,0,0,0,0,0,0.866099591982316,0.29212642814236023,0.1561709947789901,-0.05617973282095585,3.259235281853113,3.258913488258539,-0.6700202906155932,-1.2226091292630588,-0.1302091753732175,0.380188117049708,3.2591927956572526,3.2592919301142604,106751664
0,0,0,0,0,0,0,0,0,0,0,0,1.4282242212562823,-0.2119821205117846,0.023255684763870806,-0.689386914895405,3.2587813089825284,3.258909554351515,-1.500730061618097,-1.946025913480033,-0.13285787497256696,-0.8099800479388294,3.259496886670218,3.259047634488062,106752721
0,0,0,0,0,0,0,0,0,0,0,0,1.6566780038688187,-0.428548816269495,-0.356481213150169,-1.1991846798878527,3.2587742279498846,3.2585141966955895,-1.4042454843813759,-2.040870838269095,-0.1320585050652629,0.2360654993135332,3.25914676894507,3.259171552559322,106753777
0,0,0,0,0,0,0,0,0,0,0,0,2.807876885876284,-0.9458630974129554,-0.6322575369188234,-1.4724924769988628,3.2589307974494455,3.2587466906007156,-0.7416335274736318,-1.3062825448849849,-0.12999635100321186,1.309134627477482,3.25901144254344,3.2590366195483944,106754834
0,0,0,0,0,0,0,0,0,0,0,0,1.3586680243811635,2.3577718326773445,-1.106860996110558,2.2653781253550203,3.2586255262643724,3.258295471465048,1.2714989389775917,-1.030028644803601,-0.14075283297930155,2.2575154253858836,3.2593442510776818,3.259024031045917,106755891
0,0,0,0,0,0,0,0,0,0,0,0,2.6683844767075153,0.33125936165563596,0.715233864216073,0.18282793555592722,3.2589528273287804,3.2586467693623025,1.0320451655441718,-1.2121394291090284,-0.10464232023266794,1.2004694939219347,3.259140868084534,3.2591927956572526,106756948
0,0,0,0,0,0,0,0,0,0,0,0,2.2238541631524753,-0.18964578981945393,-0.08459198291206155,-0.7072295435940674,3.2590141962783568,3.2587923239221954,1.1523322406211185,-0.4496443926864138,-0.13159587759922475,2.5458688433013967,3.2591227721122227,3.258986658929188,106758005
0,0,0,0,0,0,0,0,0,0,0,0,0.5830966810103274,-0.7128868952854747,-1.2240096001636505,-1.288853369814559,3.2591849278432043,3.258847005229831,3.1722605314565335,-0.586147032516841,-0.1105899942624562,0.7779497835576277,3.259577531764213,3.2591739129035364,106759062
0,0,0,0,0,0,0,0,0,0,0,0,-0.47992642878609043,-0.9592812608815743,-1.6965190406464388,-2.0173684975348114,3.258821041443472,3.2588871310814773,0.637233142522948,-1.105566740699618,-0.091290639792757,1.1128814474202928,3.259199876689896,3.259117264642389,106760119
0,0,0,0,0,0,0,0,0,0,0,0,-1.9204330945531243,-0.9711030448797995,-0.8565429516485871,-1.2794623469665463,3.2588001917362437,3.2587836693267427,0.7620210006262064,-0.2501268565805979,-0.10457229668763836,1.5804585552762216,3.25916958560581,3.2594060134179608,106761176
0,0,0,0,0,0,0,0,0,0,0,0,-1.38948467844542,-0.4312439359717293,-0.5900836932758919,-0.6348609965873951,3.259319860854132,3.2587376426145602,0.7921016206862473,-1.5764558048791653,-0.10906914580692598,-0.04385283516083182,3.259472889837371,3.259330089012395,106762232
0,0,0,0,0,0,0,0,0,0,0,0,-0.7936665289004479,-0.37976876256093534,-0.3114041461234267,-0.7293341671626766,3.2587982247827316,3.2587152193445226,-0.23303324377933068,-2.0117630734161227,-0.11092240940599554,-0.15804550147598997,3.2589418123891125,3.2589898060548075,106763289
0,0,0,0,0,0,0,0,0,0,0,0,0.05719468083318243,-0.43126989975808855,-0.5013689758025379,0.4050893551217741,3.2586507032693266,3.258577532598678,0.3755551547473853,-1.7363907618988468,-0.1132194177173874,-0.24250609189344546,3.259037012939097,3.2593021582725235,106764346
0,0,0,0,0,0,0,0,0,0,0,0,0.7574903199065113,0.3809697843754034,-0.42720932092777736,0.028217521693411074,3.2588698218905714,3.258638508157552,-0.578813049651748,-1.8575641462283308,-0.09528394881295547,0.9700778687093101,3.259208531285349,3.259206170941135,106765402
0,0,0,0,0,0,0,0,0,0,0,0,0.10492792188262008,-0.7912145246523051,-1.1485391674684484,-1.607170964142199,3.2585153768676967,3.2584260771782487,1.0540227239159017,-0.9517867746098964,-0.11560021824839332,1.196425437501125,3.259338743607848,3.2590303252971555,106766459
0,0,0,0,0,0,0,0,0,0,0,0,0.6594534229580667,-0.7977845427733115,-1.1456032926563373,-1.3643792705988014,3.258814353801531,3.258679420790603,-0.6188680909714807,-2.1586118887200225,-0.1251206666375001,-0.8904524434152178,3.2590649436789683,3.259468169148942,106767516
0,0,0,0,0,0,0,0,0,0,0,0,0.3649867135270492,0.0011042477016744259,-0.1822665670235833,-0.682095811616875,3.2590141962783568,3.2588281224761153,-1.928606179786465,-3.222821464874919,-0.11965922351589482,-0.8379210159684438,3.259414668013414,3.259305698788845,106768572
0,0,0,0,0,0,0,0,0,0,0,0,-0.34012363435311727,0.04833512882413015,-0.02841815095164191,-0.31723813024021746,3.258797438001327,3.25870341762345,-1.57256084353457,-0.6532201472783263,-0.1269129546776956,1.7474253711015428,3.259208137894647,3.2588627408579276,106769629
0,0,0,0,0,0,0,0,0,0,0,0,1.421002354741377,0.7037216787006472,0.8553564852901083,0.44546068256624727,3.2588556598252842,3.258548421686699,0.7936326973000404,-1.5234373597428035,-0.13265881927714576,0.42006219864633065,3.2592459034020784,3.2592093180667536,106770685
0,0,0,0,0,0,0,0,0,0,0,0,2.2904005277634294,0.5795557712979044,0.9593312215007808,0.38592178653738335,3.258387918280115,3.2587187598608445,-0.5165156980175613,-1.0875045999890087,-0.12138935582510899,0.3910338987152455,3.259052355176491,3.2591652583080837,106771742
0,0,0,0,0,0,0,0,0,0,0,0,2.6710485185442585,0.3023911717404332,0.32439115338220037,0.2926012507201732,3.2585397670912464,3.25840837459664,-0.6180903575528094,-1.6914604296041045,-0.14950184220097568,-0.07641063647396998,3.25944181197188,3.2590429137996333,106772799
0,0,0,0,0,0,0,0,0,0,0,0,1.5988896964656945,0.59405575919816,0.0573288270627054,0.10194444679551681,3.258849758964748,3.2590492080508717,-1.6369836851338964,-2.2574871012553093,-0.143160777468774,-1.1383137629406168,3.2588595937323084,3.2592364620252203,106773855
0,0,0,0,0,0,0,0,0,0,0,0,0.07307310975469467,-0.6440128378883406,-0.16419419815471148,-0.5527517023982647,3.258996100306046,3.2587006638885336,-1.3493387638734298,-2.407901216495182,-0.1155113119496479,0.2787424896648514,3.2590641568975633,3.2589752505988177,106774912
0,0,0,0,0,0,0,0,0,0,0,0,1.2230391053007967,-1.038593940567248,-0.7401335287253294,-0.15601049137240544,3.2587856362802547,3.2587101052653913,-0.32189508937538736,-2.009045137053148,-0.14560058660514194,0.259832198599839,3.259298617756202,3.2593985389946147,106775969
0,0,0,0,0,0,0,0,0,0,0,0,-2.2465193684720237,0.030019251110464464,-1.2436645798283312,-1.4394413637448982,3.2589386652634937,3.259155030149821,0.5125817909934272,-1.114011265517624,-0.11062264569075651,1.2397047090178381,3.2591314267076763,3.2593694280826364,106777025
0,0,0,0,0,0,0,0,0,0,0,0,-0.23517722310748373,0.05159240384011314,-0.6184396884965525,-0.9250484019575598,3.2588001917362437,3.258337957660908,1.0595801543688959,-1.3212066079624425,-0.08426546862905843,1.2333553830808857,3.259289569770046,3.259223086741338,106778082
0,0,0,0,0,0,0,0,0,0,0,0,0.22482829389909434,-0.4213816310622252,-0.9024040463452394,-1.0526305142200605,3.258979184505842,3.2587577055403836,0.05418799569463678,-1.1996736645309525,-0.10968558903760779,1.2665725072112688,3.2596133303181327,3.2594245027809743,106779138
0,0,0,0,0,0,0,0,0,0,0,0,0.3213766004296065,-0.29730384317682307,-0.7006178260586053,-0.5053174382826612,3.2586589644740775,3.258525998416662,1.769705053532726,-2.9200073981293913,-0.09877096399914788,0.43581041524534403,3.259099168670078,3.2590653370696705,106780133
0,0,0,0,0,0,0,0,0,0,0,0,-0.32365393920587765,-0.22541405265498787,-1.1008629680708608,-1.4078670391877934,3.259038979892609,3.258417815973498,0.1532414142181175,-0.8262754710048997,-0.12222885158405918,1.9717080320963896,3.2591251324564374,3.2588399241971877,106781128
0,0,0,0,0,0,0,0,0,0,0,0,0.04541184251449615,-0.24529641214566375,-0.43236037878517847,-0.538487748919457,3.2588776897046197,3.2586274932178845,0.4143969791408752,-1.7694961630697443,-0.09745900600659918,-0.7577106186998628,3.2594508599580356,3.2592407893229467,106782123
0,0,0,0,0,0,0,0,0,0,0,0,0.8124839797596907,-0.10689723573890157,-0.8838749508708656,-0.952888268576654,3.2588595937323084,3.258651490050732,-0.9250362068457849,-1.6781657908160437,-0.11979376313612021,-0.22474174794456336,3.2591727327314297,3.2591038893585074,106783118
0,0,0,0,0,0,0,0,0,0,0,0,-0.04880051002508521,-0.3484226046112304,0.010583390067027814,-0.46624508693755706,3.2589307974494455,3.258733708707536,-0.5661938626997307,-1.5725124564781734,-0.14458524520221297,0.30055364376946014,3.2591884683595262,3.259313959993596,106784113
0,0,0,0,0,0,0,0,0,0,0,0,0.39239621071770314,-0.4790507410825182,0.27340260427029184,-0.19464421208431862,3.258780128810421,3.258906013835193,0.6710529412094284,-1.1625596121024622,-0.12670249065190442,1.8045807128644837,3.259321827807644,3.2592777680489737,106785108
0,0,0,0,0,0,0,0,0,0,0,0,0.429868642076092,1.0439822130182044,-1.0396364259286435,1.6035915021409393,3.258727414456297,3.2588674615463566,1.4552238053350217,-0.47450668507894095,-0.13334213892723787,1.7776078793535086,3.2592156123179925,3.2588281224761153,106786103
0,0,0,0,0,0,0,0,0,0,0,0,1.140566318102636,0.25315517820777633,0.6353779119703664,0.44872936591260026,3.2590437005810378,3.258731741754024,1.1087284217749145,-0.4567679115257158,-0.12363128943816297,0.9514995993971346,3.2593651007849096,3.2591117571725556,106787098
0,0,0,0,0,0,0,0,0,0,0,0,1.7364843888860213,0.5806631661251981,0.27307569659658626,-0.06864235027341249,3.258605069947847,3.2586086104641687,-0.41953702205860877,-1.3530618134810701,-0.1297103559625573,-0.13687203369999332,3.2588556598252842,3.259029145125049,106788093
0,0,0,0,0,0,0,0,0,0,0,0,-0.1505938947908753,-0.3242507129014388,-0.8943690412484456,-1.3405256319672623,3.258762426228812,3.2586286733899916,-0.019144358532948318,1.4069728621212079,0.05314157642621713,1.2083467493470608,3.2592419694950543,3.2589862655384856,106789088
0,0,0,0,0,0,0,0,0,0,0,0,0.8225193765782567,-0.40384191320442114,-1.0200601244044452,-1.127529350224656,3.258936304919279,3.258795077657113,2.032109240544944,-2.0773495647131877,-0.12889289008294227,-1.1160081167230744,3.25906848419529,3.2588501523554507,106790083
0,0,0,0,0,0,0,0,0,0,0,0,1.0722430076888807,-0.19873468860801322,-0.7127771392795014,-0.6250966459627921,3.2586632917718044,3.2585523555937232,-1.3803890920149198,-1.7165339728038276,-0.1230101255190522,-0.9460121924891701,3.25917115916862,3.2591632913545716,106791078
0,0,0,0,0,0,0,0,0,0,0,0,0.7295009648205,-0.10536301199948929,-0.6956776256176979,-1.1491579710433448,3.258938271872791,3.258729774800512,-1.326366713805999,-1.953087669979056,-0.13733387438462666,-0.48424428513578,3.259524030628685,3.259284062300212,106792073
0,0,0,0,0,0,0,0,0,0,0,0,0.2909403551745838,0.9589158009190322,0.02619588687370859,1.4179099104297055,3.2587541650240617,3.259061009771944,-0.7904981601832103,-2.0339129369155096,-0.12320131340042512,-0.03920492401181745,3.2590909074653274,3.2593328427473116,106793068
0,0,0,0,0,0,0,0,0,0,0,0,3.1287936125747695,1.967659254987151,3.1807880617127493,2.970327183047197,3.258797438001327,3.2586522768321364,-1.0744247525244657,-2.5086045156245844,-0.11247708946193331,-0.9251235395817208,3.258813960410828,3.2590488146601695,106794063
0,0,0,0,0,0,0,0,0,0,0,0,3.128720048513418,2.0585757802219127,2.29515701474631,1.113580109307779,3.258996100306046,3.25887296901619,-1.8029595497798383,-3.1335662285764485,-0.11184176347753566,-0.7447460347111267,3.2597990107296715,3.2594575475999767,106795057
0,0,0,0,0,0,0,0,0,0,0,0,1.2996605991912602,-1.5544373338743844,0.0956340665381034,-1.6690371595665405,3.2588851641279653,3.2589477132496487,-0.47001022935035575,-0.9171424290111576,-0.11590194891714439,1.220279076132664,3.2592482637462927,3.2590437005810378,106796114
0,0,0,0,0,0,0,0,0,0,0,0,-1.4670931896082389,-1.477939364664479,-1.9160967488404212,-1.7557609266949803,3.2586333940784207,3.2583241889863235,2.097922324886599,-0.12553805417276073,-0.10972846862417085,2.3535562579102822,3.2590732048837188,3.2590893339025175,106797170
0,0,0,0,0,0,0,0,0,0,0,0,-0.6577543685143432,-0.7745095818650224,-1.4064051993376254,-2.2358809037066583,3.2587883900151713,3.259261639030175,0.19577442357235236,-1.0681013903738725,-0.12446842485289869,0.1909538139049785,3.2595086883912905,3.2594477128324164,106798226
0,0,0,0,0,0,0,0,0,0,0,0,-0.9929964176412126,-0.9192238592176268,-1.6660151321906007,-1.785872624620512,3.2589339445750642,3.2585877607569405,-0.4910924304833925,-3.114176000854492,-0.12728510228217868,-2.337693171226164,3.2590944479816493,3.2591058563120194,106799282
0,0,0,0,0,0,0,0,0,0,0,0,-0.20908951867693884,-0.8149666684826217,-1.3352062028892282,-1.036240677385411,3.2590063284643085,3.258738036005263,-0.5956454510266126,-1.4808492756902307,-0.1392603086543451,0.9869012220980193,3.25911254395396,3.259263605983687,106800338
0,0,0,0,0,0,0,0,0,0,0,0,1.2430174521228612,-0.8845511894883143,-0.7956256145984667,-0.7859914762963623,3.259003574729392,3.2588824103930483,0.3893077003130555,-0.9507954300398146,-0.12581067392953324,1.8267168076892861,3.2594363045020467,3.259328122058883,106801395
0,0,0,0,0,0,0,0,0,0,0,0,1.9006581307242072,-0.3913730015007259,-0.7459462697441899,-0.3738081066379674,3.258740396349477,3.2587769816848016,1.7760555596417855,0.4714158143300789,-0.13516078414449503,1.7884249434977701,3.259442205362583,3.2590429137996333,106802451
0,0,0,0,0,0,0,0,0,0,0,0,1.6628495172082802,-0.3422589590858172,-0.19563122935667387,-0.5112308873213395,3.2590968083258636,3.2587179730794396,0.5493937193624638,-1.4468618925645222,-0.13201208496237815,-0.22115756525487484,3.259195942782872,3.259252197653317,106803507
0,0,0,0,0,0,0,0,0,0,0,0,-0.14452899033176783,0.03851609689189158,-1.073075029024485,-1.2794202541613882,3.258765179963729,3.2588694284998687,-1.0317414679219088,-2.688296340500872,-0.1308724320974865,-0.8058781630847648,3.2589339445750642,3.2591184448144963,106804563
0,0,0,0,0,0,0,0,0,0,0,0,1.016621889665352,0.03133356944722765,-0.2925457826311329,1.3026291254316718,3.2589544008915903,3.25847839814167,1.1657515842618447,-0.11878196224951293,-0.12600540232722787,2.36642328100482,3.2592234801320408,3.259003968120094,106805619
0,0,0,0,0,0,0,0,0,0,0,0,-0.17708207095647702,0.3653907257784278,1.0106215012814403,0.1210172082206259,3.2590283583436435,3.2588776897046197,1.8673375448390894,-0.5867906197059892,-0.12788226936844221,1.0934058539159124,3.259197909736384,3.259138507740319,106806676
0,0,0,0,0,0,0,0,0,0,0,0,0.11274459513957442,0.3816200592064928,-0.15312615074231037,-0.9394323396006035,3.258664078553209,3.258620412185241,0.20410879899368276,-1.764975710508312,-0.13813914515246692,0.213313748039454,3.2589929531804263,3.2591432284287487,106807732
0,0,0,0,0,0,0,0,0,0,0,0,0.09312108673108657,-0.0006451607519579831,-0.9045861845715266,-1.2957821602561663,3.259018916966786,3.2590212773110006,1.1854034168009062,-1.333182994506716,-0.13051287299548064,2.0427717021431566,3.259619231178669,3.259174306294239,106808788
0,0,0,0,0,0,0,0,0,0,0,0,0.24965596790980907,-0.9368505164206643,-1.4024059894568908,-1.7830610612703635,3.259199089908491,3.259127492800652,-0.24628303602731655,0.7732609597755622,-0.11682051620727969,2.180382916972985,3.2592746209233545,3.2590413402368235,106809844
0,0,0,0,0,0,0,0,0,0,0,0,0.4151652711826886,-0.7979277369889899,-1.0991477846083384,-1.3349327963510509,3.258710892046796,3.258642048673874,0.24258752376884504,-1.3116452469402846,-0.1551489657341201,0.3040473465975936,3.259235675243816,3.2591947626107647,106810900
0,0,0,0,0,0,0,0,0,0,0,0,0.22300925529113474,-0.3800484633503512,-0.6676245412378956,-0.7125588074396619,3.258799011564137,3.2587203334236543,-1.0189067028649692,-1.7299159443278247,-0.13829964855905158,-0.45215815927483544,3.259473676618776,3.259346611421896,106811956
0,0,0,0,0,0,0,0,0,0,0,0,1.1150431293300544,-0.12724576321193734,-0.5318689503513515,-0.8032400850343805,3.258809633113102,3.258728988019107,-1.083653698403084,-1.3274497184097431,-0.11211556340641537,0.11964820857622725,3.2588898848163943,3.258966596003365,106813013
0,0,0,0,0,0,0,0,0,0,0,0,0.9650881010398985,-0.25198130035177474,-0.7861161811490274,-0.7644045548921292,3.2584736774532406,3.2586648653346137,-0.6572724649038868,-2.3115362300319946,-0.12998454928213946,-0.30619093253504426,3.25920381059692,3.2589547942822925,106814070
0,0,0,0,0,0,0,0,0,0,0,0,0.0818787672375163,0.5321816959597702,-0.8196169399758505,-1.1699022495630085,3.258959121580019,3.2586019228222276,0.3136685030065182,-1.2405835438470296,-0.12031225208190108,0.889451657468278,3.258979971287247,3.2594248961716765,106815126
0,0,0,0,0,0,0,0,0,0,0,0,2.4367493434845615,-1.3215303685105284,1.4197989725826945,-2.138261000902772,3.2589756439895203,3.259174699684942,1.0900557386941598,-0.7455572063395031,-0.10840785603616905,0.7032535437647752,3.2591861080153115,3.258856053215987,106816183
0,0,0,0,0,0,0,0,0,0,0,0,0.6981603143406289,-0.1547567552038139,-0.5558000869512661,-0.7779899094092737,3.2587923239221954,3.25869200929308,-0.4278296980654833,-1.599295675670585,-0.15072528728548137,-0.10302037036661747,3.2593568395801586,3.259128672972759,106817240
0,0,0,0,0,0,0,0,0,0,0,0,-0.8771208259011298,-0.029432312182463664,-0.6316666640837983,-0.5610376907631982,3.2587628196195144,3.2586267064364796,-0.18847387891696438,-0.70990971444961,-0.12469541128819123,0.9471077855953914,3.259348184984706,3.259372575208255,106818296
0,0,0,0,0,0,0,0,0,0,0,0,-0.019956710333432,-0.25580899188625716,-0.4905869234307913,-0.9893095599781941,3.258813960410828,3.258978004333735,0.45653777796480394,-1.3411023427370004,-0.13506991089223752,-0.8615366532250228,3.2593273352774776,3.258865101202142,106819353
0,0,0,0,0,0,0,0,0,0,0,0,1.0521014037253145,-0.49312035955433364,-0.5541671221455482,-0.19224964287872826,3.258814353801531,3.2585751722544636,-1.2626586631129577,-2.7022089960824243,-0.14126306072033176,-0.22600649905282247,3.2592868160351296,3.259222693350636,106820409
0,0,0,0,0,0,0,0,0,0,0,0,1.050537282292519,-0.03849642735677091,-0.29174837967734096,-0.4528080407152224,3.2587388227866674,3.25857949955219,-0.4241345791977142,-1.4085558663077196,-0.10898102628958539,2.154556817359545,3.259153063196309,3.2590468477066574,106821466
0,0,0,0,0,0,0,0,0,0,0,0,0.9668304284608875,0.18976538059298761,-0.039142374890133724,-0.31631680921516525,3.2587718676056703,3.2587518046798474,1.2098955285424624,-0.8389139341013353,-0.12610335661212882,1.0921702137196319,3.259195549392169,3.2587502311170375,106822523
0,0,0,0,0,0,0,0,0,0,0,0,1.4252116352572004,0.48458732182828446,0.00671399911808957,0.3398183631680444,3.2585712383474394,3.2589713166917935,-0.030968896266090423,-1.3229095963131898,-0.13482915578236054,1.0642729120579852,3.2592938970677725,3.2592215131785287,106823579
0,0,0,0,0,0,0,0,0,0,0,0,1.4518941464297945,-0.15491332470337446,0.6391717719044413,0.2924852004629612,3.25904409397174,3.2589036534909788,1.1403963733191935,-0.23402616191222214,-0.12340154926795355,0.8747065871604188,3.259217185880802,3.259309239305167,106824636
0,0,0,0,0,0,0,0,0,0,0,0,2.496344887774573,-0.7367487951217645,1.1211725498643577,-1.6522775354716221,3.2589064072258953,3.2590448807531454,0.01284420643379765,-0.5920596947741145,-0.1357319874443993,0.49197795295452507,3.2594854783398484,3.258932371012255,106825693
0,0,0,0,0,0,0,0,0,0,0,0,-0.4248902827370503,1.2779096338641207,-1.6350891155110736,-0.9271270784291121,3.2585228512910422,3.258752984851954,0.07992322205581928,-0.9229528096858035,-0.1325750270575317,0.5585774253103047,3.259047634488062,3.259382803366518,106826749
0,0,0,0,0,0,0,0,0,0,0,0,0.5607056690103613,-0.27060402281332285,-0.2129860535843436,-0.38240172653218824,3.259079499134957,3.2588261555226032,0.16696406209040426,-0.44056650883752213,-0.11276229772118303,0.64776342484515,3.259288389597939,3.2594343375485346,106827806
0,0,0,0,0,0,0,0,0,0,0,0,1.3300858295066151,0.21398841309409297,0.1843358021182778,-0.15098885905609835,3.258946533077542,3.2591019224049953,0.04107077611336423,-1.1555379814550855,-0.14954472178753872,0.23283930216304088,3.2597494435011676,3.2590641568975633,106828862
0,0,0,0,0,0,0,0,0,0,0,0,2.1556937164895196,0.3387672232111958,0.21778581354448956,0.11187126778021667,3.258514983476994,3.2583403180051227,-1.6176284691844547,0.13378549024885775,-0.1277319941201203,0.23011192442320877,3.258998067259558,3.258891458379204,106829857
0,0,0,0,0,0,0,0,0,0,0,0,1.2774757239193586,0.3762416215230967,-0.11404632497386037,-0.3063250787645672,3.2590617965533486,3.2589500735938635,-0.3122711792315458,-1.5396135854260427,-0.1178213021542194,-0.17201087141166582,3.2588281224761153,3.2589268635424213,106830851
0,0,0,0,0,0,0,0,0,0,0,0,0.11724655833799341,0.1374758884281979,-0.42427187255285653,-1.1555265731247153,3.259016556622571,3.2587828825453378,-0.16657263834150293,-1.2204088950644607,-0.1328382054374463,0.19514421166708606,3.2591573904940354,3.2593906711805665,106831846
0,0,0,0,0,0,0,0,0,0,0,0,-0.761280245933562,0.025634124950662248,-0.1942095153581518,-0.7078208098197948,3.2590098689806304,3.2583049128419055,-0.8617467238601116,-1.7364647193509006,-0.12034883741722553,0.11491375147268193,3.2593989323853174,3.25911254395396,106832840
0,0,0,0,0,0,0,0,0,0,0,0,-0.6515081109414232,0.1939951174253365,0.05330601373982593,-0.08590708803022956,3.258942599170518,3.2589292238866356,-0.8023537757818432,-1.4445271187456987,-0.1425789526199046,-0.12355418486048995,3.259348184984706,3.259458727772084,106833835
0,0,0,0,0,0,0,0,0,0,0,0,-0.06470057543523018,0.6310923136582748,0.6557244724898901,0.48833790878509387,3.258880050048834,3.258644015627386,-1.0751690477334317,-2.2865866049035315,-0.14201404357123895,-0.47065814383723065,3.259337170045038,3.2592978309747966,106834829
0,0,0,0,0,0,0,0,0,0,0,0,-0.32315118588819336,0.7901437151603359,0.6506044924979796,0.4860267384084151,3.2590507816136816,3.2587608526660024,-0.5144763606162501,-1.5751898735987988,-0.11303334391514586,0.9956970448132806,3.259023637655215,3.258920962681885,106835824
0,0,0,0,0,0,0,0,0,0,0,0,2.685718451227957,0.5455762559862442,0.5421203186655424,0.7829824308136022,3.258902866709574,3.258446926885477,-0.02519746127098337,-2.117411687065564,-0.14249280005607604,-0.12710060204274679,3.2592344950717083,3.2592852424723198,106836818
0,0,0,0,0,0,0,0,0,0,0,0,2.6505056560642304,-0.49106686008773565,-0.5888220892932521,-0.9251978904244769,3.2585543225472353,3.2583556602425165,0.6297260677487931,-0.5702599489998756,-0.13791687940560335,2.2204308772600743,3.259086580167601,3.259326155105371,106837813
0,0,0,0,0,0,0,0,0,0,0,0,-0.4253151446956568,-1.024376407191325,-1.4369295641099886,-1.5485242782264088,3.259005541682904,3.2585031817559216,0.9285267625482991,-0.4843347649973351,-0.11139251129537955,2.1260371716066806,3.2589563678451023,3.2589414189984103,106838807
0,0,0,0,0,0,0,0,0,0,0,0,-0.528291455303604,-0.5292473947104686,-0.8180595061849958,-1.1678821883061157,3.258531112495793,3.258729774800512,0.5784692261778386,-2.72766766877981,-0.14161160488267002,0.561997564077087,3.259111363781853,3.2594579409906794,106839802
0,0,0,0,0,0,0,0,0,0,0,0,2.0011072994598504,-0.38407009650112345,-0.6625104621065213,-0.20491524993363022,3.258754558414764,3.258758098931086,1.1287992154120463,-0.03466991599439573,-0.135746936291091,2.1453412467648083,3.2592514108719124,3.2592777680489737,106840796
0,0,0,0,0,0,0,0,0,0,0,0,1.5294330274382861,0.3921416869332417,0.4057679540834372,0.6608302904165136,3.2591503094613916,3.2589103411329194,1.766899784433816,0.6859612686587893,-0.12744521229806094,1.1072591075014004,3.259139687912427,3.2590059350736063,106841791
0,0,0,0,0,0,0,0,0,0,0,0,1.1680021724703518,0.7737530915442814,0.18817018129470126,0.3809005476117787,3.258697910153616,3.2586750934928768,-0.27435618333294187,-1.49328946987265,-0.1195144557374067,-0.006791890477167425,3.2593355964822286,3.2591892551409307,106842785
0,0,0,0,0,0,0,0,0,0,0,0,-0.15512968958970183,-0.06854636294202363,-0.5436045817857482,-0.05219193127059117,3.2591699789965123,3.258747083991418,-0.3132298723733273,-1.5044656997282146,-0.1301474130329386,0.46748426765015927,3.2593080591330597,3.2593324493566094,106843780
0,0,0,0,0,0,0,0,0,0,0,0,0.4102262509138883,-0.7430096081506739,0.06473283347282807,-1.2034451011949898,3.2590244244366193,3.2587494443356326,0.07377806589341948,-1.0674176773330781,-0.1201545024102333,0.7707165087123523,3.259376115724577,3.2589732836453056,106844774
0,0,0,0,0,0,0,0,0,0,0,0,0.5816521503510654,-0.5076935181252381,-1.8246113806499695,0.7107200992965816,3.2584972808953854,3.258573992082356,-0.775628385022686,-1.810250259667666,-0.11399203705692731,0.21120556726522055,3.2590598295998365,3.2590728114930165,106845831
0,0,0,0,0,0,0,0,0,0,0,0,1.1388900803196524,-0.7344266098054182,-0.6358743710368121,-1.3574233361987273,3.2589433859519223,3.258738036005263,-0.6146202581668208,-1.1817523576918074,-0.1198083185921095,0.6535155836958388,3.259087760339708,3.258962662096341,106846888
0,0,0,0,0,0,0,0,0,0,0,0,0.2596543860023482,-0.8428816727258769,-1.3150775808188415,-1.9927520743312925,3.2588776897046197,3.258738429395965,1.3528973761674612,0.6104672325214425,-0.13576267191918753,2.3845597725581853,3.259343464296277,3.259144015210153,106847944
0,0,0,0,0,0,0,0,0,0,0,0,0.27233179477832253,-0.5366722508278191,-0.9108304751909345,-1.225026515129389,3.258800978517649,3.258815533973638,1.4916301478898701,0.5019873859867316,-0.1316147603529406,1.5041946535342516,3.2592852424723198,3.2590944479816493,106849001
0,0,0,0,0,0,0,0,0,0,0,0,0.47641069607862185,-0.5400998640179472,-0.9285208616877629,-1.201454544240778,3.2589949201339383,3.25893158423085,-1.8621601298046266,-1.262038285975252,-0.12310729302254832,0.5080755004972817,3.259333236138014,3.2592344950717083,106850058
0,0,0,0,0,0,0,0,0,0,0,0,1.180852673155388,-0.5857737047402506,-0.24350294393336105,-0.4265437038592939,3.2587057779676645,3.2586628983811017,0.8639418439795784,-0.38056498534262,-0.12395701693976127,0.9626526192012571,3.2594170283576283,3.259383590147923,106851114
0,0,0,0,0,0,0,0,0,0,0,0,1.1012335421125343,-0.2522578540155714,-0.8069788702701175,-1.122565939732306,3.258763213010217,3.2585456679517826,-0.40133247391372606,-1.563232369808241,-0.12122098460447604,-0.028998008846999268,3.25938634388284,3.258824581959794,106852171
0,0,0,0,0,0,0,0,0,0,0,0,0.4204370999857306,-0.4114367141052144,-0.16852818352319998,-1.0013634444908435,3.2590134094969523,3.2589284371052307,-1.831851343137186,-2.6016555788106417,-0.12417534877960071,-0.8253490359007162,3.2589846919756758,3.258998067259558,106853227
0,0,0,0,0,0,0,0,0,0,0,0,0.25113826407650275,-0.41861412747074694,-0.07056249029189232,-0.5000833749870508,3.2587368558331553,3.258645982580898,-1.6856547696178874,-2.51065762170048,-0.1144109981549976,0.026158514756979317,3.2592187594436117,3.2592899631607484,106854284
0,0,0,0,0,0,0,0,0,0,0,0,0.2080698499762833,0.8544737165538926,-1.203164613624169,1.235899047362691,3.25864952309722,3.258400900173294,1.1381508991898177,-0.7423679879150376,-0.08740000574588844,0.8237432150534647,3.2592935036770703,3.2588422845414025,106855341
0,0,0,0,0,0,0,0,0,0,0,0,-1.2900166261215957,1.2044281845603209,-0.6865033610467148,-1.1707909191597605,3.2589052270537886,3.2590822528698746,0.46857946736567824,-1.4661494453131492,-0.13305024302604712,1.4233032969597932,3.2593418907334675,3.2589898060548075,106856397
0,0,0,0,0,0,0,0,0,0,0,0,0.7437413148571628,-0.5249972015615942,-0.6259160787959193,-1.047503846586209,3.25890876757011,3.2587431500843937,1.7163978596207927,-0.6024680259785683,-0.15166627784565423,1.3384040759091467,3.2594020795109366,3.2594571542092745,106857454
0,0,0,0,0,0,0,0,0,0,0,0,0.20240777759644715,-0.32029634956077924,-0.7993588923643699,-1.0178823134758845,3.2591149042981744,3.2586550305670534,0.011256088168154736,-2.273561438746624,-0.1196761393160986,0.1339310448087507,3.2591967295642768,3.2589174221655632,106858511
0,0,0,0,0,0,0,0,0,0,0,0,0.33986320970811956,-0.24669963678117235,-0.6444436007074833,-0.550994426130584,3.258704204404855,3.258910734523622,-1.3291562472768124,-1.7342019360306187,-0.14075243958859915,-0.06692677342018764,3.2591892551409307,3.2589418123891125,106859567
0,0,0,0,0,0,0,0,0,0,0,0,-0.09800031161312003,-0.2155092615496232,-0.5883618221714284,-0.7690764628739908,3.2590614031626464,3.2587789486383136,1.060770948025101,0.0937292687570177,-0.12383939311973967,1.042957036847715,3.259469349321049,3.2594162415762233,106860624
0,0,0,0,0,0,0,0,0,0,0,0,0.0033316258587391206,-0.11097945105784549,-0.12113050474292096,-0.5750121086850295,3.2588863443000724,3.258858020169499,-0.03229304937041395,-0.8474823769906016,-0.13633820251681833,0.3308864272697481,3.259262032420877,3.25913693417751,106861680
0,0,0,0,0,0,0,0,0,0,0,0,0.48243940859310724,-0.12822687962375634,-0.828804973221418,-0.7240001826286534,3.258797044610625,3.2586577843019704,-0.06658688385330246,-1.318146815079071,-0.1501167118688478,0.0015070797809457518,3.2595079016098856,3.2590366195483944,106862737
0,0,0,0,0,0,0,0,0,0,0,0,1.3409996677636704,0.21304034150127665,0.06791811799026942,0.17292786513899147,3.258959908361424,3.2587447236472036,-0.6716017212392951,-1.8395236420063543,-0.1367890282617841,-0.6401548552697724,3.259252197653317,3.2591719459500244,106863794
0,0,0,0,0,0,0,0,0,0,0,0,2.6270096095811852,0.24255959302897367,-0.001821792342876475,1.419064905531991,3.2589532207194827,3.2590067218550107,-0.7567066856273038,-1.8648375469252523,-0.1287677918395748,-0.14164071579464863,3.2589807580686516,3.2592238735227435,106864850
0,0,0,0,0,0,0,0,0,0,0,0,2.73498316228189,-1.481182477615175,1.8757077188143394,-2.8023190620325873,3.2587006638885336,3.258795077657113,-0.09929810754038185,-1.7034903172839064,-0.1326415100862396,0.355111820115068,3.2594201754832475,3.2592832755188077,106865907
0,0,0,0,0,0,0,0,0,0,0,0,-0.015584566066809422,0.2595875095829379,-1.1970005747080534,-1.1943381064341194,3.2591278861913544,3.258668799241638,0.30537779395315573,-1.505897248494297,-0.13041649227338936,-0.8520146312731064,3.2593572329708613,3.2591518830242014,106866963
0,0,0,0,0,0,0,0,0,0,0,0,-0.27693407260585695,-0.5547918265809806,-1.016340221922424,-0.8414572049924379,3.259107036484126,3.258729774800512,-0.740707879150853,-1.8918217887665973,-0.09825719574179599,-0.2366642399626064,3.258933551184362,3.2592553447789365,106868020
0,0,0,0,0,0,0,0,0,0,0,0,-0.45815304018891334,-0.22964457626874163,-0.4536557976789233,-0.4158017773391935,3.2586927960744854,3.258587367366238,0.049747008055091864,-1.5892988311408556,-0.12770760389657065,0.9125157609600736,3.2592222999599336,3.259297044193392,106869076
0,0,0,0,0,0,0,0,0,0,0,0,0.777030036095385,0.42946030252698686,0.3240831284622107,-0.13145858424408247,3.2591802071547753,3.2590110491527375,-2.372893771278116,0.5170023223164466,0.027726570096799144,0.7944297068631299,3.2596255254299074,3.259427256515891,106870133
0,0,0,0,0,0,0,0,0,0,0,0,1.6022295835291842,0.4559992260932,0.3902475107011212,0.16266902240145473,3.2587891767965766,3.2587596724938956,-0.8021374108955158,-0.97961838002424,-0.09826388338373701,0.7800878620252445,3.258870608671976,3.2586314271249086,106871190
0,0,0,0,0,0,0,0,0,0,0,0,0.8080209622408107,0.17633108810556986,-0.3610323501863897,-0.4541007225633529,3.258472103890431,3.25853386623071,-0.713203181410215,-1.8298194801592207,-0.1318350591462921,-0.03151610273314747,3.259118051423794,3.259033472422775,106872246
0,0,0,0,0,0,0,0,0,0,0,0,0.8209269310148871,-0.06338389675425252,-0.7401146459716136,-0.41205276394519375,3.2586731265393647,3.258951647156673,-0.8283376250669509,-1.5346163433332851,-0.12980909702886306,0.5518760146946925,3.2593029450539284,3.259644801574326,106873303
0,0,0,0,0,0,0,0,0,0,0,0,0.5800124979034063,-0.5515451731139628,-0.4959881777749273,-0.9893894182907842,3.2592344950717083,3.2590043615107964,0.2443149023431423,-0.904273438963108,-0.11269974859949929,0.8062809951640361,3.2591597508382497,3.259061009771944,106874359
0,0,0,0,0,0,0,0,0,0,0,0,1.2428998283028396,-0.8189894818055011,0.2489372430964998,-0.8154442447953516,3.258824975350496,3.2584972808953854,-0.2822719910469044,-1.2365449948960536,-0.12533899847733954,1.115246512323202,3.2592128585830755,3.2591613244010595,106875416
0,0,0,0,0,0,0,0,0,0,0,0,0.6054050809627868,2.8340983431456497,-1.5745966404195593,0.1189310573257276,3.2590322922506676,3.2590688775859924,0.6437292031919006,-0.8523490133701578,-0.1275148424523881,1.1340848128896728,3.2594162415762233,3.259173126122132,106876472
0,0,0,0,0,0,0,0,0,0,0,0,1.3008431316427147,0.4788505052149898,-0.31405284572277614,-0.14012930871597631,3.258944959514732,3.2589787911151396,0.70198289179598,-1.4419834544638936,-0.1104696167075177,0.3688572846480947,3.2594894122468725,3.2593100260865717,106877529
0,0,0,0,0,0,0,0,0,0,0,0,1.5301131999627589,0.20803287125025646,0.3505606830788473,-0.25150923150887866,3.258904833663086,3.2584209630991174,0.2560418791820859,-0.46378875539168773,-0.1312681831441144,0.6265706809247351,3.2595102619541003,3.2591373275682125,106878585
0,0,0,0,0,0,0,0,0,0,0,0,-0.7773868414624739,0.05781269762667389,-0.6826882580147097,-1.1727256146342293,3.2588186810992577,3.258730954972619,0.23447580748508065,-0.0987245438962631,-0.13204198265576156,0.17555020756127923,3.2593603800964805,3.2590283583436435,106879580
0,0,0,0,0,0,0,0,0,0,0,0,-1.2642774658533888,0.06166831990102767,-0.23532631818369842,-0.08611283136759178,3.2586825679162224,3.258846611839129,1.7558030195001386,-2.253235334543626,-0.10915569176145694,1.028002682686172,3.25911254395396,3.259138507740319,106880575
0,0,0,0,0,0,0,0,0,0,0,0,0.7589576672265133,-0.034984628556326454,-0.546615200831318,-0.6545631831363657,3.258859987123011,3.2587191532515467,0.625274458560283,-1.119980576036045,-0.12354356331152477,0.14976148006456852,3.2591270994099495,3.2593064855702503,106881569
0,0,0,0,0,0,0,0,0,0,0,0,0.5142072813757993,-0.48160345335047877,-1.3480885682211599,-1.7160386939094894,3.2589488934217563,3.2584272573503563,0.1729955283398066,-1.388303719556775,-0.1376285240207343,0.5885258660943349,3.2597112846030334,3.2591349672239978,106882564
0,0,0,0,0,0,0,0,0,0,0,0,0.4101499331176201,-1.1741193978928801,-2.0484259067089443,-1.7750292032991888,3.258754951805466,3.2587293814098093,0.596561264581831,-0.8396519350590628,-0.11592869948490851,1.5892189728282655,3.258992559789724,3.2592907499421537,106883558
0,0,0,0,0,0,0,0,0,0,0,0,0.06878987178681752,-0.5182635329083839,-1.0708980048773296,-0.5603429627827361,3.2592553447789365,3.2588379572436756,1.4571278163347026,-0.4650814372398182,-0.11416119505896509,1.2917542328541556,3.259679419956138,3.259107036484126,106884553
0,0,0,0,0,0,0,0,0,0,0,0,-1.0706466282184872,2.0571965524192515,-1.6641819315173543,-0.6758538813416816,3.2588112066759116,3.2588025520804584,0.6145860331757108,-1.0277359637899355,-0.10368205352807683,0.4347518008651496,3.259496886670218,3.2593792628501967,106885547
0,0,0,0,0,0,0,0,0,0,0,0,2.096633970336195,-1.1133023754718752,0.1551757163018842,-0.641987269161614,3.2587045977955578,3.2582742283671173,-0.6913574089237938,-1.5635230855373246,-0.09812619663789232,0.320088639269905,3.2588847707372626,3.2589146684306463,106886542
0,0,0,0,0,0,0,0,0,0,0,0,0.6166119952931399,0.3089942346804421,-0.1607260657222349,-0.5503760159463901,3.2588493655740454,3.2588025520804584,-0.8600063633926347,-1.4196203732037986,-0.10685238919882645,0.48624349668544486,3.259333236138014,3.259216005708695,106887537
0,0,0,0,0,0,0,0,0,0,0,0,0.4342864196641945,-0.08344367545171683,-0.11357543630307153,-0.6291088377367064,3.258911127914325,3.2584382722900234,1.7008545995777367,0.001965773339959781,-0.12799399232792763,1.7090457807833885,3.259055108911408,3.259214038755183,106888531
0,0,0,0,0,0,0,0,0,0,0,0,0.9157148141520993,0.04540397470044788,-0.1637067870744213,-0.29073815235354333,3.2586286733899916,3.2589437793426246,0.5780616734101384,0.011640824275115045,-0.12422963669653377,1.3649591284941587,3.2590633701161584,3.258996100306046,106889526
0,0,0,0,0,0,0,0,0,0,0,0,2.06297152793068,0.022001555204576875,-0.015915407647539098,-0.15099712026084902,3.258961875314936,3.2590157698411666,2.4915050019627807,1.382315526284638,-0.12491334973732826,2.7533643428521564,3.2590842198233867,3.2590995620607806,106890520
0,0,0,0,0,0,0,0,0,0,0,0,1.0345864694817624,-0.39453310901321276,-0.5688382350013536,-0.5350530546966856,3.2586597512554825,3.258452040964608,0.32400838422875217,-0.9766860457284504,-0.116746558755226,-0.5593067716725793,3.2591227721122227,3.2592175792715046,106891515
0,0,0,0,0,0,0,0,0,0,0,0,1.442813508845986,0.22476967868443473,0.11784057829863766,-0.41086787114952456,3.2588076661595897,3.258859987123011,-2.60779562089391,-2.868303664720495,-0.13303608096076022,-1.89360384864853,3.259222693350636,3.2590558956928124,106892509
0,0,0,0,0,0,0,0,0,0,0,0,2.1379990026949645,0.009405184913299669,0.21533774320337096,-0.20442665868123275,3.258911521305027,3.2590138028876545,-2.024480608043743,-2.159852642995434,-0.12515646519141974,0.235848347645801,3.2592108916295635,3.2591817807175847,106893504
0,0,0,0,0,0,0,0,0,0,0,0,1.7174403449821882,1.778077194461488,0.4624276235613374,2.077624151423472,3.2591353606147004,3.258641261892469,-0.22429957679505072,-1.5869066222794799,-0.11233153490204034,0.9871758088083039,3.2592573117324486,3.259269113453521,106894498
0,0,0,0,0,0,0,0,0,0,0,0,3.210129107252253,1.7499615609600019,1.620963242168813,3.2099001538634484,3.25874905094493,3.258932371012255,0.2577908942450159,-1.2156429667047222,-0.13819028594378066,0.9255511552752441,3.2595020007493494,3.259080679307065,106895555
0,0,0,0,0,0,0,0,0,0,0,0,2.449630135253684,2.2209127808705307,1.959002692580544,1.652971083279977,3.258423323443332,3.2586986969350216,0.46675728163209934,-1.5545317476429636,-0.14348453801686023,0.6151832002619744,3.2590712379302067,3.2588918517699064,106896612
0,0,0,0,0,0,0,0,0,0,0,0,2.048993176101825,0.49807393527912325,0.4539673631152347,-0.43175495049416424,3.258682961306925,3.2584677765927044,-0.12673474868950232,-1.7123632445768409,-0.10828629830912331,1.6996114849581103,3.2590444873624427,3.2593926381340785,106897668
0,0,0,0,0,0,0,0,0,0,0,0,0.11419581344077746,-0.6449691706859076,-1.5274456176096938,-2.04584644387322,3.2587431500843937,3.2587518046798474,-0.10533822838523726,-0.6984978435632996,-0.13231853631955817,1.5582374880596979,3.2592639993743893,3.259195549392169,106898725
0,0,0,0,0,0,0,0,0,0,0,0,-1.909045220499661,-1.1952865714176382,-1.8885731683460674,-1.8710185016415715,3.258939058654196,3.2588757227511076,0.030402807045317535,-2.264448543125217,-0.14037950520271125,-0.7722094264280112,3.25922662725766,3.259287602816534,106899781
0,0,0,0,0,0,0,0,0,0,0,0,-2.7368631764487237,-1.669491525827828,-1.7643757896871315,-2.5314628757790176,3.2589662026126627,3.2587663601358363,-0.5710817421772172,-1.4362297220503952,-0.12568242856054646,-0.07374934837214331,3.2593068789609525,3.259267539890711,106900838
0,0,0,0,0,0,0,0,0,0,0,0,-3.1808490372716234,-1.1353920501937924,-1.6935308448709063,-1.8122903838503817,3.2590452741438476,3.258682961306925,-0.2909844149332541,-1.4480963525886954,-0.1193032049302107,0.27672557553357785,3.2595059346563735,3.2594237159995694,106901894
0,0,0,0,0,0,0,0,0,0,0,0,-0.32866022928479066,-0.5006994248270303,-0.7082720289554629,-1.2386158035535577,3.258843464713509,3.2585378001377343,0.24486171541949694,-1.4741411774326774,-0.103851604920817,0.438132207170988,3.259216005708695,3.258907587398003,106902951
0,0,0,0,0,0,0,0,0,0,0,0,0.034306422985365743,-0.7414765645833689,-1.1427771738501995,-1.228155151385683,3.2590649436789683,3.2590547155207057,0.23287864123328222,-1.5944837205986642,-0.11536575738975494,-0.2976610419346144,3.2590987752793756,3.2590936612002444,106904008
0,0,0,0,0,0,0,0,0,0,0,0,1.7608274055513626,-0.1203334951798314,-0.6994769930216065,0.14646447258764178,3.258924109807504,3.2585326860586026,-0.16858286483083543,-1.7291488324581186,-0.09308332122365488,0.41632302001989124,3.25915817727544,3.259348578375408,106905064
0,0,0,0,0,0,0,0,0,0,0,0,0.44896461355264344,1.31570975967762,-1.46951726311651,-1.0796757316202799,3.258653457004244,3.2587577055403836,0.2630776718947496,-1.1397976326701205,-0.11514978589412997,0.8940067284115228,3.2593155335564052,3.258972496863901,106906121
0,0,0,0,0,0,0,0,0,0,0,0,0.5652457911069144,-0.524430718950119,-1.203434086255322,-1.0810325361529036,3.25900160777588,3.2589012931467645,-0.5372273251089245,-1.4288386975334522,-0.10873279675636252,0.0868441446833783,3.259075565227933,3.2589272569331236,106907177
0,0,0,0,0,0,0,0,0,0,0,0,0.7090344201367402,-0.5034873847350341,-0.7118786349151891,-0.7260753185838841,3.2588198612713644,3.2585027883652193,-0.20618000104188933,-1.2858136398570106,-0.1349275034579639,1.4912434448293976,3.259587366531773,3.2593316625752045,106908234
0,0,0,0,0,0,0,0,0,0,0,0,1.0920734396068381,-0.04629382446930699,-0.2542252009183408,-0.6260683209977532,3.258428437522463,3.2585657308776055,2.081974659201462,-1.8285948549026076,-0.10258213312412895,-0.23020869853600243,3.2591149042981744,3.2588769029232143,106909290
0,0,0,0,0,0,0,0,0,0,0,0,1.2832652548867767,-0.25866736872999296,-0.3607829404810596,-0.3763439031057242,3.2590952347630537,3.259050388222979,-0.5569523283186351,-0.7208078170785686,-0.10800777769181462,-0.8285276327762165,3.2592573117324486,3.2588796566581317,106910347
0,0,0,0,0,0,0,0,0,0,0,0,0.24972087737570728,0.0630133227125791,0.13207738781897876,-0.12087558756775707,3.258638901548254,3.258438665680726,-0.4743933885566459,-1.564781542394345,-0.10974341747086255,-0.5993480443177276,3.2594048332458536,3.259467382367537,106911403
0,0,0,0,0,0,0,0,0,0,0,0,0.6905733812538839,0.1729282585296939,-0.05514865578993031,-0.3944870823010304,3.2587758015126944,3.2588678549370593,-1.4595994901179659,-1.784369085355888,-0.13876699671351872,-1.0045341735522955,3.259048027878764,3.258970136519687,106912398
0,0,0,0,0,0,0,0,0,0,0,0,1.2582963536138956,-0.2062445171170851,0.2707070911773552,-0.23260287435089042,3.258810026503804,3.2586011360408227,-1.0224177148840088,-1.4266207607532453,-0.10830164054651743,1.0260734946815364,3.2592364620252203,3.2587521980705496,106913393
0,0,0,0,0,0,0,0,0,0,0,0,-0.13951168531318728,0.9339775841209392,-0.0647190647982436,1.587438879899845,3.2591322134890808,3.258727021065595,-0.40538282458577446,-0.9076113590730857,-0.14031341556470578,1.2446968370314642,3.258983118412866,3.259625132039205,106914387
0,0,0,0,0,0,0,0,0,0,0,0,0.8643930631152466,-0.11087992321013489,2.267667265852364,-1.6764718504514515,3.2591231655029254,3.2590444873624427,-0.5212863470657285,-1.1076426634362535,-0.12464112337125817,0.890194772505137,3.259156997103333,3.259410340715687,106915382
0,0,0,0,0,0,0,0,0,0,0,0,3.2562856383664176,0.33401663708885154,-0.09065098651063282,-0.09932446471744354,3.2589252899796115,3.2590653370696705,0.39629471257862,-1.6744801133251326,-0.15480081496248424,0.23986604688954913,3.2597167920728674,3.2590621899440513,106916376
0,0,0,0,0,0,0,0,0,0,0,0,1.5550502365887446,-0.3456377918288459,-0.5813315369285985,-0.26898167955657,3.2591613244010595,3.258900506365359,0.5576281735453812,-0.7269313367523356,-0.14024181845686656,1.3571420618465018,3.2592828821281055,3.2594174217483305,106917371
0,0,0,0,0,0,0,0,0,0,0,0,0.43987256763846483,-0.49297913229216717,-0.5876769289585267,-0.6320419588139008,3.2590232442645126,3.2589842985849735,1.1101898682343803,-1.2943789356206579,-0.13896093832980852,2.1151744741409386,3.259348184984706,3.259235675243816,106918365
0,0,0,0,0,0,0,0,0,0,0,0,-0.051993662356574814,0.03048463231141952,-0.5407603670072993,-0.8156318921604028,3.2587828825453378,3.2585350464028173,-1.0186356566710062,-0.6837736229626682,-0.1477732834545712,-1.374005147696155,3.2596530627790763,3.259083826432684,106919360
0,0,0,0,0,0,0,0,0,0,0,0,-0.3705905640829281,-0.5034842376094147,-1.3953505272091062,-1.2860913736929147,3.259191222094443,3.2586361478133377,0.658532495323717,-1.109409381080792,-0.14095424901893724,0.3776586148331898,3.259303731835333,3.259286422644427,106920355
0,0,0,0,0,0,0,0,0,0,0,0,-0.14844204764867397,-0.7630359486384329,-1.2952931756130663,-1.7650001007318616,3.2588635276393325,3.2586865018232465,-0.05377257511288823,-1.3979834911803593,-0.11761949272388132,-0.230342451374823,3.259199089908491,3.2590598295998365,106921349
0,0,0,0,0,0,0,0,0,0,0,0,-0.6143653409916568,-1.0305550015634302,-1.6713373150035518,-1.8773666474064168,3.2586487363158145,3.2588253687411983,-0.6517465057070858,-1.5311100520026746,-0.159049434548549,0.4473517116727485,3.2592683266721156,3.2592978309747966,106922344
0,0,0,0,0,0,0,0,0,0,0,0,-0.2913140763418765,-0.9523320141234415,-1.2258632571534225,-0.7599820566155978,3.2590861867768988,3.2589862655384856,0.3298006689310871,-0.6014172794124222,-0.15657304007685663,1.173427423647335,3.2593041252260355,3.259230561164684,106923338
0,0,0,0,0,0,0,0,0,0,0,0,-0.023338690202080032,-0.565490873514518,0.24030664447625213,-1.723268428238443,3.258852119308963,3.2589359115285763,0.8195827149847406,-0.6059987075327287,-0.1334963480825839,1.3817828752735704,3.2588131736294237,3.2593009781004163,106924333
0,0,0,0,0,0,0,0,0,0,0,0,0.801936781637285,-0.8000197887444244,-0.24990144370811507,-1.150013595821094,3.258913488258539,3.258721513595761,0.8052152997511982,-0.875033101443422,-0.11472335037271385,1.5506025613072587,3.259458727772084,3.2592718671884375,106925327
0,0,0,0,0,0,0,0,0,0,0,0,0.5304322875061378,-0.2898884284363304,-0.36112951768988577,-1.096069108971251,3.2591377209589147,3.2592089246760514,1.1382980273125203,-0.48908377755686966,-0.12301563298888599,2.0279939804069973,3.2593772958966847,3.259319074072727,106926322
0,0,0,0,0,0,0,0,0,0,0,0,0.871977635857777,-0.3102727544632857,0.06725210753108353,-0.44578995058416726,3.258757312149681,3.25863496764123,0.4354776067111023,-1.8512112797750566,-0.11465529378119632,1.1058196909212696,3.259321041026239,3.2591817807175847,106927316
0,0,0,0,0,0,0,0,0,0,0,0,2.640185050986415,0.8259764940710655,1.2404596257757694,1.6341009180666108,3.258728988019107,3.2585342596214124,0.4970759030671004,-2.4142202513480484,-0.12437361769361706,-0.8105807555414146,3.2589547942822925,3.2590558956928124,106928373
0,0,0,0,0,0,0,0,0,0,0,0,3.2535759632081938,1.5300050175195952,1.5685124598160338,1.657908529985968,3.258974463817413,3.2591192315959012,-0.43754487485228477,-0.5379609987689254,-0.1388256119281783,0.3136319176711938,3.2595673036059503,3.2590492080508717,106929429
0,0,0,0,0,0,0,0,0,0,0,0,2.498489260493429,1.207366813107349,1.2153837222318318,0.9812147594946337,3.25881907448996,3.2584567616530373,-0.13039170865913732,-1.3877171740194767,-0.1448857956988568,-0.050138431803993196,3.25890876757011,3.258993346571129,106930486
0,0,0,0,0,0,0,0,0,0,0,0,1.485674212655331,0.658221323278108,0.7926724305954492,0.7168082138071314,3.2588635276393325,3.2586294601713965,-0.7760870785817001,-1.2931370011731387,-0.12744835942368024,0.07067539342348497,3.259309632695869,3.259550781196449,106931542
0,0,0,0,0,0,0,0,0,0,0,0,1.6474179801247095,-0.03029698494636833,0.3240976839182,-1.0887886272416862,3.2588293026482225,3.259020490529595,0.049845355730695214,-0.6482213316227593,-0.14297981774566385,0.33886203037047746,3.259403259683044,3.259303731835333,106932599
0,0,0,0,0,0,0,0,0,0,0,0,0.39119754924744954,0.34823613741828646,-0.627197745704382,-0.1201395535635416,3.259067697413885,3.258505935490839,-0.018105020297172106,-0.773495814024903,-0.13446094208490159,0.9242360501570761,3.2593100260865717,3.2591613244010595,106933655
0,0,0,0,0,0,0,0,0,0,0,0,0.6343696516000809,0.9752403348970812,-1.310437144093173,-2.0643814402081295,3.2589012931467645,3.258657390911268,0.14496290027652983,-1.1105376256153137,-0.1384235666303118,0.1301238095907938,3.2593450378590862,3.259287602816534,106934712
0,0,0,0,0,0,0,0,0,0,0,0,0.404592502664626,-3.1256748110860357,-0.9873005136609689,-2.8919637551264468,3.258699483716426,3.258383984373091,-0.8544178550741499,-2.2234135655657723,-0.11004672170242329,-1.2562188573144504,3.2591357540054027,3.259165651698786,106935768
0,0,0,0,0,0,0,0,0,0,0,0,-1.0372937842957717,-0.7492200671696743,-1.8732108680261215,-2.0201560640521126,3.259025997999429,3.2584827254393964,-1.8091900717246618,-2.719053592569064,-0.12295387064860709,-0.4473587927053919,3.25885172591826,3.2589764307709252,106936824
0,0,0,0,0,0,0,0,0,0,0,0,-0.5283473167833468,-0.8223832633952216,-1.2939229957965608,-1.7358844680648406,3.2588064859874826,3.2588147471922335,-0.03657904107320799,-1.811510290087496,-0.12210808063841827,1.140937285535012,3.2595047544842664,3.2590712379302067,106937881
0,0,0,0,0,0,0,0,0,0,0,0,-0.4992045401578593,-1.1094514738859504,-1.4874861702306472,-1.395667993505954,3.2586062501199544,3.2587758015126944,-0.5269043596868943,1.2942589514564218,-0.13208328867951497,1.8197219276096734,3.258769507261456,3.2592419694950543,106938937
0,0,0,0,0,0,0,0,0,0,0,0,0.2913066019185307,-1.1800033426288774,-1.5898657071430333,-1.3513092579018184,3.258904833663086,3.2589528273287804,1.0650537926022758,-2.125399485278068,-0.14291294132625357,0.49771122905149806,3.259686107598079,3.259174306294239,106939994
0,0,0,0,0,0,0,0,0,0,0,0,1.5440651946145527,-0.5330011287928973,-0.7362200780177208,-0.8782172057887561,3.2586841414790317,3.258732921926131,0.2196980857489211,-0.9986380337045233,-0.1390931176058194,0.43790522073569543,3.259250624090507,3.259267539890711,106941050
0,0,0,0,0,0,0,0,0,0,0,0,0.23813630797103738,-0.5749625414565255,-0.8250610739065496,-0.5967292424117615,3.2587718676056703,3.2587478707728232,0.16358640951948278,-1.131272856148822,-0.1186989568113037,0.5084810863114698,3.259265572937199,3.2589103411329194,106942107
0,0,0,0,0,0,0,0,0,0,0,0,-0.8915598382425115,-0.3057995087861429,-0.6750741809694982,-0.6964203472638544,3.2589500735938635,3.2587396095680723,0.5643307643331008,-0.9112384213493373,-0.13161672730645266,1.3388017939092867,3.25931789390062,3.259304518616738,106943163
0,0,0,0,0,0,0,0,0,0,0,0,0.11812539316718497,0.1717138614313437,-0.8028344992201923,-0.4633237675814352,3.2586577843019704,3.258457941825144,0.6123181357762976,-0.8509339870135768,-0.12159785289738809,0.5963476534304205,3.259346218031194,3.259197909736384,106944219
0,0,0,0,0,0,0,0,0,0,0,0,3.0791028593901224,-1.6893239246992975,0.42751931280127914,-0.9796459173734089,3.258682961306925,3.258666438897423,0.26375745102852,-1.8230315235890775,-0.12140823857882482,0.6614907934058658,3.2587903569686834,3.2586168716689192,106945276
0,0,0,0,0,0,0,0,0,0,0,0,-0.2976405856180889,0.6733051029807451,-0.18437828831413844,-0.45406728435364774,3.2586648653346137,3.2588072727688875,0.09720526900354254,-1.1450560861892802,-0.1314412750531763,0.9070452698523128,3.25910113562359,3.259347398203301,106946333
0,0,0,0,0,0,0,0,0,0,0,0,0.6789416049649244,0.24663787444089347,0.12625441864185555,0.24283890042768722,3.2586294601713965,3.2583572338053264,-0.1642878251418859,-1.5711292947684876,-0.13089564214892888,-0.7504037797932361,3.2591920088758477,3.2593088459144646,106947389
0,0,0,0,0,0,0,0,0,0,0,0,1.4182446859174591,0.6785804723001089,0.7896834480385122,0.7614938570849724,3.2588957856769305,3.2583981464383776,-0.08775484415946531,0.6095805298782027,-0.12614308907307256,2.1586579154322045,3.259441418581178,3.2591097902190436,106948446
0,0,0,0,0,0,0,0,0,0,0,0,2.8736545650547223,0.8449170762201639,0.8584949563139624,0.8555071539291327,3.258839137415783,3.2591330002704857,1.5982162115831626,0.5794873213156844,-0.15292355453056744,2.646321945944064,3.2592537712161267,3.259557862229092,106949503
0,0,0,0,0,0,0,0,0,0,0,0,1.6663156826872445,0.34694424235156085,-0.45629898980843897,-0.4724405971098658,3.2588647078114397,3.258821434834174,0.6651709634269433,1.4629385904000507,-0.11009943605654668,2.1501441538505737,3.2589158486027534,3.259273047360545,106950559
0,0,0,0,0,0,0,0,0,0,0,0,1.717447819405534,-0.12235434321812906,-0.669047435408525,-1.3119391097949873,3.258939058654196,3.258848972183343,0.13045622473433313,-0.7556087321768679,-0.12738384334848443,-0.23614260389120625,3.2591444086008554,3.258913094867837,106951616
0,0,0,0,0,0,0,0,0,0,0,0,-0.5477151212352658,-0.4340425174286982,-1.037419669320544,-1.4922241678505144,3.2588548730438793,3.2587352822703455,-2.000852775675389,-2.4738929002157333,-0.1382095620881989,-1.436673073372015,3.2591459821636652,3.2592199396157193,106952672
0,0,0,0,0,0,0,0,0,0,0,0,-0.42711451376849574,-0.14519618096306097,-0.35591276358518165,-0.8351767224284079,3.2589776109430324,3.2583344171445865,-1.3203301334774653,-1.972271760972948,-0.11219935562602944,0.5878995880960927,3.2591499160706894,3.259010655762035,106953729
0,0,0,0,0,0,0,0,0,0,0,0,-0.02573365279837284,0.02868172272225889,-1.234485201178217,-0.6503283322248855,3.258644015627386,3.258826548913306,-0.34759294361984056,-1.8589181970260378,-0.15740742175667546,-0.11358409089852463,3.2592679332814134,3.2591149042981744,106954786
0,0,0,0,0,0,0,0,0,0,0,0,0.11322453179651877,-0.5147403257775695,-1.546103745234459,-0.07855186206720614,3.2586546371763507,3.259079499134957,-1.2835972766396138,-2.422851636749701,-0.13407541919653646,-0.5578830907205451,3.2593403171706576,3.259109396828341,106955842
0,0,0,0,0,0,0,0,0,0,0,0,-0.09964783187482737,-0.2760607452464992,-0.18783304546273294,-0.20195813202358864,3.2590138028876545,3.258741969912287,-0.7130875245437055,-2.3498705804193714,-0.12348062079913863,-0.5632217959429974,3.259123558893628,3.259020097138893,106956899
0,0,0,0,0,0,0,0,0,0,0,0,0.33033095959794034,-0.034955911035050274,0.320495011865498,-0.4455291325484672,3.2589882324919976,3.2586408685017663,-0.7830792049263959,-2.2302774465414816,-0.12015528919163813,0.3592487167416473,3.2595228504565776,3.259590907048095,106957956
0,0,0,0,0,0,0,0,0,0,0,0,0.47196105384362386,0.22854426247409135,-0.11421351602238607,-0.3804461813504912,3.2586455891901958,3.2587183664701422,1.0839259247691542,-0.5044854169470568,-0.12805772162171858,2.28931004873634,3.259496886670218,3.2591833542803945,106959012
0,0,0,0,0,0,0,0,0,0,0,0,0.7251465231354859,-0.11684057913310278,-0.7557837910394418,-0.8033097151887078,3.259222693350636,3.258907587398003,0.01175215384389804,0.7633148626464441,-0.1085121045723086,0.12602900576937268,3.2590739916651237,3.2591357540054027,106960069
0,0,0,0,0,0,0,0,0,0,0,0,0.08265138657705624,-0.08570960589761804,-0.7643274503144563,-0.7905713308538592,3.2587604592753,3.258553535765831,0.10053689486228166,-1.7670028527978483,-0.11933821670272549,-0.5308335460225995,3.259366674347719,3.2593898843991616,106961125
0,0,0,0,0,0,0,0,0,0,0,0,-0.6699125015631319,-0.2839553098625314,-1.0472367342992706,-0.6526048842197518,3.258732528535429,3.258636934594742,-1.1472220953967684,-2.1336311857260686,-0.11025089147697584,-0.680338141958492,3.2592718671884375,3.259053535348598,106962120
0,0,0,0,0,0,0,0,0,0,0,0,0.3979721305337108,-0.5101002824426034,0.007236421970894572,-0.32273222479012303,3.258905620444491,3.2590566824742178,0.3854851228577045,-0.7374588653396207,-0.13140783684347115,1.4782351944726937,3.2586172650596215,3.2587616394474077,106963114
0,0,0,0,0,0,0,0,0,0,0,0,1.0769585820387102,-0.19048646575051137,-1.3007593394231007,-0.9904023993494987,3.258735675661048,3.2587466906007156,1.2716039742951362,-0.9502899229872134,-0.1272209795976853,1.2951794857000691,3.259375722333875,3.2595208835030656,106964109
0,0,0,0,0,0,0,0,0,0,0,0,0.5980309722460475,0.02082335005084873,-0.47139181749723164,-2.187742470233735,3.259174306294239,3.2587167929073324,0.3169261714132036,-1.3090968619700505,-0.0996281623397067,0.3720004763603778,3.2591947626107647,3.2591109703911503,106965103
0,0,0,0,0,0,0,0,0,0,0,0,1.3348080914983858,-1.0226155904073226,-0.6755568713613594,-0.09115767373534127,3.258863921030035,3.258974463817413,-0.2880088076601991,-1.5939144842522721,-0.14164582987378,-0.6367827101686847,3.259174306294239,3.259144801991558,106966098
0,0,0,0,0,0,0,0,0,0,0,0,0.30417913248290207,-0.015177406689811549,-0.0398784088943492,-0.23409697223865655,3.2587502311170375,3.258594448398882,0.9040102605831933,-1.0307930029383903,-0.13335984150884647,1.947592395257043,3.259413094450604,3.2593879174456495,106967092
0,0,0,0,0,0,0,0,0,0,0,0,1.5751772850963217,0.42814677097162857,0.6867244466214713,0.8865641697125637,3.25908972729322,3.2590448807531454,1.3015858532888713,-0.24772717329587618,-0.1239286928091875,2.7911302436745458,3.2594363045020467,3.2593619536592904,106968087
0,0,0,0,0,0,0,0,0,0,0,0,3.1101571214386365,0.4549913591136168,0.5133068100579751,0.51421554258055,3.2587372492238575,3.2589064072258953,1.070218225743559,-2.2069517382325814,-0.11456835443596296,-0.14870601280999338,3.259528751317114,3.2592364620252203,106969081
0,0,0,0,0,0,0,0,0,0,0,0,1.6587161610980226,0.17650378662392932,0.14655455905849443,-0.2778471324261585,3.259024031045917,3.2584933469883612,1.658566279240403,-0.009471667942007534,-0.13287400399136592,1.0051813012577655,3.2592002700805986,3.259507114828481,106970075
0,0,0,0,0,0,0,0,0,0,0,0,2.2325095453869754,0.5928138247506409,-0.012302114045871978,0.10274066957720156,3.259008688808523,3.2588104198945067,-0.9413536597911906,-1.9737587778280707,-0.13293301259672793,-0.11229180244109659,3.259291536723558,3.2592112850202657,106971070
0,0,0,0,0,0,0,0,0,0,0,0,1.3661912281741175,0.19233579544255677,0.4684346995871901,-0.39598432731441585,3.2584445665412622,3.2586318205156113,-1.5487850962621088,-1.7713753904551732,-0.1270514282049451,0.0796246385126875,3.259471709665264,3.25937493555247,106972064
0,0,0,0,0,0,0,0,0,0,0,0,0.42663064320452726,0.06185675404748369,0.4225488212762858,-0.378439101986778,3.2589976738688557,3.2588383506343783,-1.1367158099074137,-1.1984899519073906,-0.10458763892503248,-0.16209703232014563,3.259221119787826,3.2591754864663462,106973059
0,0,0,0,0,0,0,0,0,0,0,0,1.1907118309392728,0.09213721658435065,0.16941724651065426,-1.1237732557980127,3.258913488258539,3.2590653370696705,-1.0017505409420182,-1.7526008191824936,-0.11388149426954916,-0.1242426185897134,3.259020883920298,3.259083039651279,106974053
0,0,0,0,0,0,0,0,0,0,0,0,-0.44672189315818467,0.09342006366492075,-1.443535774175617,-0.2363876862988098,3.2586711595858526,3.2585047553187314,-0.468814321615019,-1.7994847297054206,-0.1027623060658343,-0.43692174397966194,3.2596428346208137,3.2594677757582398,106975048
0,0,0,0,0,0,0,0,0,0,0,0,-0.3922258725435582,-0.26587625335171855,-1.3834119061722643,-1.0961835856656532,3.2587101052653913,3.258858020169499,-0.8045595174502751,-2.3131149069207795,-0.10342713635291294,-1.1526021066429741,3.2594213556553546,3.2593336295287165,106976042
0,0,0,0,0,0,0,0,0,0,0,0,-0.8318179526112023,-0.8375524088802825,-0.7594470452603156,-1.7887365089340816,3.2588949988955256,3.2585511754216165,-0.3310252941877,-2.125700822556117,-0.11743577926585427,0.715327097812545,3.259597594690036,3.2592112850202657,106977036
0,0,0,0,0,0,0,0,0,0,0,0,-0.6805761433334522,-0.693396746325105,-1.0573944756262867,-0.815594126652971,3.2590271781715368,3.2585771392079756,0.7834784964893455,-1.8697635853008727,-0.14498060285813844,1.1168019791605448,3.259219152834314,3.259362740440695,106978093
0,0,0,0,0,0,0,0,0,0,0,0,0.495233261016996,-0.29243012576462335,-0.7276492747842401,-0.6108633769587728,3.2585401604819486,3.2587537716333594,0.017515721024956826,-1.5587937425129106,-0.11536929790607665,1.5295947110169779,3.2589807580686516,3.258924109807504,106979150
0,0,0,0,0,0,0,0,0,0,0,0,0.00682375512406291,-0.49306253112107884,-0.42237454919511663,-1.0263331325451293,3.25864794953441,3.2588938187234184,0.09420566489764033,-1.6990713595236966,-0.1261171252867133,0.6506516993822692,3.259080679307065,3.2594599079441915,106980207
0,0,0,0,0,0,0,0,0,0,0,0,0.5986619709327187,-0.8054965741034238,-0.7063597567510315,-0.8623851969701286,3.2589835118035686,3.2587604592753,0.017940976374265713,-1.1221477654156404,-0.13172490974961634,0.4523788514588894,3.2594807576514193,3.259545273726615,106981263
0,0,0,0,0,0,0,0,0,0,0,0,0.4237616448118263,0.04172026416304876,-0.4950125688329421,0.0028017285825882652,3.258912701477134,3.2586817811348174,0.36781401250529433,-0.29027827862242206,-0.11100895536052649,1.0771241995244263,3.2594040464644487,3.25929507723988,106982320
0,0,0,0,0,0,0,0,0,0,0,0,1.198075318107047,-0.22808674908718454,-0.012450422340681831,0.05973873850568992,3.2587026308420457,3.2586188386224313,1.39485564170547,0.2513459743673771,-0.15987516163291474,1.2792294596707177,3.2592124651923733,3.2590138028876545,106983377
0,0,0,0,0,0,0,0,0,0,0,0,2.072929820171573,1.1658715684260808,-0.8172530552450483,2.498378324315348,3.259090120683923,3.2586617182089945,1.1025333049933081,-0.48981627104476344,-0.12030241731434074,0.39197056197769187,3.2594823312142287,3.2592510174812097,106984433
0,0,0,0,0,0,0,0,0,0,0,0,2.5803629136518134,-1.659316081919203,3.16068028934959,-0.21046638613538574,3.2589901994455097,3.2585897277104525,1.0035861019594792,-0.20366780801627732,-0.16256123334899344,2.0779018852593762,3.259252984434722,3.259233708290304,106985490
0,0,0,0,0,0,0,0,0,0,0,0,1.619063951857561,0.7721712675298771,0.6152909893144356,0.29678771457525666,3.258911521305027,3.258588154147643,1.4739149777787897,-0.3101795208668137,-0.142472737130253,0.6642484622297837,3.2594842981677408,3.2589453529054344,106986547
0,0,0,0,0,0,0,0,0,0,0,0,1.8823839524249972,0.0831930855742795,-0.37158505577862927,-0.49819509961546654,3.259077138790743,3.2589186023376704,-0.790199970030781,-1.3213895346390647,-0.1410734464017685,0.3565052099830162,3.258902866709574,3.259286422644427,106987603
0,0,0,0,0,0,0,0,0,0,0,0,2.15967758413286,-0.7709659184176824,-0.7540489380417987,-1.237755064696677,3.2586314271249086,3.2587455104286085,-0.7905697572910496,-0.7280135545746749,-0.14671978315350806,-1.3119674339255611,3.25899846065026,3.2592427562764588,106988660
0,0,0,0,0,0,0,0,0,0,0,0,-0.9970507022202852,-0.19050652867633444,-0.41394694017731426,-1.060064811714269,3.259168012043,3.2587486575542277,-1.2084132323757686,-1.7526543203180216,-0.09162226815489151,-0.4371876760944934,3.2593293022309897,3.2592592786859607,106989717
0,0,0,0,0,0,0,0,0,0,0,0,-0.8278679165682693,0.2693506800354338,-0.6572158166427393,-0.846431237033753,3.2586581776926726,3.2588359902901636,-1.6597912978877183,-1.4516553582734295,-0.11318479933557501,-0.8684847198110485,3.2590527485671936,3.2594095539342822,106990773
0,0,0,0,0,0,0,0,0,0,0,0,0.8641920404663134,-0.2454073483237443,-0.5087690483056364,-0.7753486842332701,3.2589846919756758,3.2586613248182923,-1.5720848407846497,-1.5891741262881907,-0.1315620459988172,-0.6640639619903519,3.2594854783398484,3.2593324493566094,106991830
0,0,0,0,0,0,0,0,0,0,0,0,0.3331728140321748,0.2510186733029691,-0.32129752889842134,-1.0522060456521565,3.258949680203161,3.2589709233010913,-1.6537901227224017,-2.284800217723872,-0.11635198788070535,-0.6039983158109564,3.2594323705950226,3.2596294593369315,106992887
0,0,0,0,0,0,0,0,0,0,0,0,-0.03339414994646906,0.02162114639534311,-0.26474564847298243,0.4072530039850478,3.258554715937938,3.258986658929188,-1.7150792139863031,-2.1373278781566474,-0.10879180536172453,0.056555420941760644,3.2593175005099173,3.2591149042981744,106993943
0,0,0,0,0,0,0,0,0,0,0,0,0.7442637377099678,-0.9909401644396978,0.22747738688914618,-0.11410494018851998,3.2588588069509035,3.2587097118746886,0.3719324197688603,-0.9711313690103732,-0.14585314343609135,1.3062215693261108,3.2590303252971555,3.2592443298392686,106995000
0,0,0,0,0,0,0,0,0,0,0,0,0.16130553022688987,-0.6152555841512184,-0.4340586464474972,-0.608177305242694,3.2590169500132737,3.2588977526304426,0.7435048870450124,-1.0315671958407395,-0.09931069604285907,0.9637419180562398,3.259507114828481,3.259307665742357,106996057
0,0,0,0,0,0,0,0,0,0,0,0,-0.2945878737673609,0.47145790713523705,-0.44068098553192436,-0.5125459924395075,3.2586703728044473,3.258697516762914,0.7227606085253486,-1.844611363960667,-0.1318287648950535,0.3133888022171023,3.258964629049853,3.2588863443000724,106997113
0,0,0,0,0,0,0,0,0,0,0,0,1.155233103660715,0.0909735668866118,-0.6755580515334667,-0.8791145299809611,3.2587203334236543,3.258360380930946,0.18108757508845033,-1.3233820585467886,-0.13328627744749516,-0.4402230787543152,3.259294683849178,3.2595503878057466,106998170
0,0,0,0,0,0,0,0,0,0,0,0,0.5641466574843713,-0.6718440499119818,-1.025578215787198,-1.3946062320001402,3.2591117571725556,3.259167618652298,1.515959395880627,-1.010436607651306,-0.10969896432148984,1.1556843227963831,3.2595409464288885,3.2595149826425294,106999227
0,0,0,0,0,0,0,0,0,0,0,0,0.9025362256212502,-0.8041240339427035,-1.5206415320207514,-1.1497020303847827,3.2588300894296274,3.258638901548254,-0.40716252412349274,-1.344776218506839,-0.11303413069655067,0.0050145512836636645,3.2594618748977036,3.259088547121113,107000283
0,0,0,0,0,0,0,0,0,0,0,0,2.054801589822959,-0.03601137828962544,0.12433624557688779,0.5504350245517521,3.259018130185381,3.258871395453381,-0.02863766296358859,-0.8670744141428964,-0.13703686440430454,1.5051907187927624,3.259254164606829,3.2592982243654993,107001340
0,0,0,0,0,0,0,0,0,0,0,0,2.490201698565685,0.4457549388116525,-0.11660415132095232,-0.04929854265434058,3.2587966512199222,3.258996493696748,1.4744952290648494,-0.024180152914542306,-0.11393578218648222,2.629823139884846,3.2591782402012632,3.2591817807175847,107002396
0,0,0,0,0,0,0,0,0,0,0,0,-0.12076347121756925,-0.49265497835337857,-1.4760424346974412,-1.934639219598677,3.2587368558331553,3.2587352822703455,1.1457512075604448,-0.3784127448097163,-0.1332323829212645,1.9696049654012877,3.2591782402012632,3.2590358327669895,107003453
0,0,0,0,0,0,0,0,0,0,0,0,-1.510078598270249,-1.6214459325606743,-1.7638128475919779,-1.827391472743925,3.258940238826303,3.2585256050259597,1.0956115955843444,-0.4811483003077865,-0.11265372188731693,0.6520675125202551,3.2592427562764588,3.259260065467365,107004510
0,0,0,0,0,0,0,0,0,0,0,0,-1.2737113682879648,0.14730396834659198,-1.595155238527684,-1.866571219750788,3.258759279103193,3.2585617969705813,1.0517575802514052,-0.8955920929422488,-0.12746684878669368,0.7387173221966412,3.2589103411329194,3.2591625045731667,107005566
0,0,0,0,0,0,0,0,0,0,0,0,0.4310649432021312,-0.43484346089881193,-0.6601540517990651,-0.537547545140689,3.2588037322525656,3.2587521980705496,0.7603860688669764,-1.0916108121408,-0.13694638454274946,-0.6267402323174753,3.2593639206128024,3.259252197653317,107006623
0,0,0,0,0,0,0,0,0,0,0,0,0.6706996763586612,-0.17038616781069846,-0.29900919187178515,-0.8042931919447412,3.259235675243816,3.2589957069153437,-0.9808347440761022,-1.464228125122562,-0.13504788101290235,-0.07321394362615867,3.259338743607848,3.2593497585475157,107007680
0,0,0,0,0,0,0,0,0,0,0,0,0.2499085247407585,0.20787472818788624,-0.006393385695622646,-0.33784354184192916,3.259010655762035,3.258847005229831,-1.1299310004628897,-1.7433368615313602,-0.11368243857412798,-1.541374402210045,3.258989019273402,3.2593631338313975,107008736
0,0,0,0,0,0,0,0,0,0,0,0,0.553138405458737,0.30062799461221634,0.2613439990692138,0.0986482260999949,3.2587045977955578,3.2586723397579593,-1.1649404126334681,-2.931917695035659,-0.1211375857755644,-2.03428311756648,3.2593887042270544,3.2592427562764588,107009793
0,0,0,0,0,0,0,0,0,0,0,0,0.9301168477674541,0.7920233359364671,-0.1533145848887664,-0.3433329157034058,3.259053535348598,3.2589957069153437,-0.6487945018761756,-1.4229350832623342,-0.14153882760272354,0.8724945512407483,3.259378476068792,3.2590617965533486,107010849
0,0,0,0,0,0,0,0,0,0,0,0,1.2480308232344177,0.21709344590824195,-0.24392269181283613,-0.9073123821392515,3.259086580167601,3.259162111182464,1.337597231578497,-0.3673332890669452,-0.13659626681760154,1.9443689518414677,3.2591939758293598,3.259164078135976,107021790
0,0,0,0,0,0,0,0,0,0,0,0,-0.4085252295166527,-0.3835075477966723,-0.869231375364229,-1.0743834465007123,3.258868641718464,3.258623952701563,2.052392465161379,0.8579025099161279,-0.11232012657167036,2.588399492311417,3.2587038110141524,3.2588658879835473,107022785
0,0,0,0,0,0,0,0,0,0,0,0,-1.8744708984459517,-0.7453970963236208,-1.689294027005914,-2.30492411910583,3.258751017898442,3.2589441727333273,0.4212982322333136,-0.825943449252063,-0.1214869167193075,0.6441147260802658,3.25937493555247,3.259403259683044,107023780
0,0,0,0,0,0,0,0,0,0,0,0,-0.4233572391697453,-1.2087098489653885,-1.3427443555288738,-1.1634388403223561,3.2592809151745934,3.259042127018228,0.06695549094146382,-0.7925024858120067,-0.10905301678812702,1.094743382304118,3.259439451627666,3.259311599649381,107024774
0,0,0,0,0,0,0,0,0,0,0,0,-1.0494637190656326,-0.5083115349187297,-1.237770013543369,-2.037391690896951,3.2589103411329194,3.2587561319775737,0.6575128266230614,-0.8699670159777422,-0.12312892951118105,0.6948412769843669,3.259374148771065,3.258950466984566,107025769
0,0,0,0,0,0,0,0,0,0,0,0,0.16971858378870294,-0.3705807293153678,-0.8183687112770929,-1.1085702787125444,3.2589603017521265,3.258942599170518,-0.8735004512668194,-0.5108331693211996,-0.14459075267204674,0.46973013517023743,3.2593670677384217,3.25940916054358,107026763
0,0,0,0,0,0,0,0,0,0,0,0,0.5397041129713194,0.18526813808299755,-0.40897526848021365,-0.780843958955283,3.2588993261932524,3.2588883112535845,-0.7855972988125443,-1.2762050719505633,-0.1283834491233169,0.10615097357642335,3.258815533973638,3.258997280478153,107011844
0,0,0,0,0,0,0,0,0,0,0,0,0.3124025717261519,-0.35182150028008224,-0.24628303602731655,-0.7568522401871968,3.258774621340587,3.258419389536308,-1.1109644545274322,-1.645115464343484,-0.12503451407367158,-0.5474523362460537,3.2594705294931563,3.2592785548303786,107012839
0,0,0,0,0,0,0,0,0,0,0,0,1.0465203698301755,0.07930677882513747,-0.6203905129898205,-0.16215132023707868,3.2588997195839546,3.258580286333595,-0.8650976258632691,-1.9837406735111085,-0.11448338204424167,-0.7105312717594232,3.2592403959322445,3.2591963361735745,107013833
0,0,0,0,0,0,0,0,0,0,0,0,2.090107618583157,-0.658527774635288,1.854616469695147,-1.4818949081772457,3.2586947630279974,3.258834416727354,-1.1290537391965079,-1.5501096427571348,-0.11699990236758022,-0.32754221290853175,3.2591739129035364,3.2588501523554507,107014828
0,0,0,0,0,0,0,0,0,0,0,0,2.7341035406712937,0.5963142152207154,0.7885768399926233,0.39500163733978716,3.2591353606147004,3.2584795783137768,-0.7178963324900068,-2.1026398661899406,-0.1373877689108573,-0.4633072451719338,3.2592132519737778,3.2594685625396442,107015823
0,0,0,0,0,0,0,0,0,0,0,0,1.2521531644050077,0.6095600735616771,0.21390894817220546,-0.7933655850131016,3.2588383506343783,3.2589603017521265,-0.2777196738385765,-1.4896033989910362,-0.11766040535693231,0.5613107039106731,3.2592498373091026,3.259258885295258,107016817
0,0,0,0,0,0,0,0,0,0,0,0,-1.0575073787578795,0.012733270255717069,-0.8229198483133134,-1.3692742311089312,3.258959514970721,3.258738036005263,0.006389058397896098,-1.278142127769247,-0.1442115240349202,-0.22783851955396167,3.2593902777898642,3.2591526698056064,107017812
0,0,0,0,0,0,0,0,0,0,0,0,-0.29036325101414334,-0.7058849341732185,-1.102897584783743,-0.4379075810799099,3.259184534452502,3.258637327985445,1.008573115893974,-2.917644300179994,-0.14244559317178643,-0.6032422188809178,3.259289176379344,3.259698696100556,107018806
0,0,0,0,0,0,0,0,0,0,0,0,1.734620897128689,-0.031760398359346194,0.4020519855084402,0.9290845905643214,3.258679027399901,3.2586101840269786,-1.5132772580715725,0.7140521185460231,-0.11466670211156631,1.0697854959709043,3.259109396828341,3.259106643093424,107019801
0,0,0,0,0,0,0,0,0,0,0,0,3.2550795024728183,0.8504701793754315,0.9788520549359386,1.2105131519452514,3.2585979889152035,3.258682961306925,0.844872623070791,-0.9535959784502956,-0.1512221397426295,1.2999540686552604,3.259254951388234,3.25894299256122,107020796
0,0,0,0,0,0,0,0,0,0,0,0,1.1597205114031448,-0.2689494215189721,-0.8303238547234362,-1.097655260283382,3.259005541682904,3.2588454316670212,0.5379645392852472,-1.0069704421723416,-0.11120565071173319,1.2027456525260987,3.258983118412866,3.2589622687056385,107027820
0,0,0,0,0,0,0,0,0,0,0,0,1.7884084210882687,-0.33643362956447953,-0.42391664074857716,-0.8454745108454835,3.258979184505842,3.2584980676767907,-0.46233911065329436,-1.818808867789372,-0.13337243001132368,-0.45372031375411914,3.2592270206483622,3.258819467880662,107028877
