0,0,0,0,0,0,0,0,0,0,0,0,0.07612582160542268,0.02333790342067521,-0.5858755929321757,-0.5379657194573545,3.2587636064009198,3.258760065884598,0.6628436640314656,-0.22763002248168257,0.11528393212365294,0.33147257941634406,3.259081859479172,3.2590641568975633,54825833
0,0,0,0,0,0,0,0,0,0,0,0,0.727395144390481,0.01012390972660896,-0.3957915658702333,-0.3582609126878873,3.2587333153168334,3.25852088433753,2.0354955477113186,-0.4866219385411666,0.7293872749075024,-0.6695989691733085,3.259132606879783,3.2593509387196224,54826889
0,0,0,0,0,0,0,0,0,0,0,0,0.46721676197251816,0.02706960762376876,-0.8167892476069031,-0.9171558042950396,3.258760065884598,3.25898705231989,2.180376622721746,-0.23303953803056932,-0.21710918153633849,0.6414632727459995,3.2593403171706576,3.2592128585830755,54827946
0,0,0,0,0,0,0,0,0,0,0,0,0.3685343108814133,0.19130865231855537,-0.929549578374574,-0.6345022242667943,3.2590082954178206,3.2587238739399758,0.6561170764108987,-0.16552267855676156,-0.17003054261571676,0.16882637367562933,3.259005541682904,3.2588741491882978,54829002
0,0,0,0,0,0,0,0,0,0,0,0,0.5432029298785841,-0.16854863983972546,-1.0368118806853153,-0.924629047468787,3.2587966512199222,3.25879468426641,0.7007098794829701,-0.2022555353946132,-0.1742142527358833,-0.015204550648278076,3.259128672972759,3.2592022370341107,54830058
0,0,0,0,0,0,0,0,0,0,0,0,0.35031599406194613,-0.18895106183899185,-0.8559198207759644,-0.58924065700062,3.2591499160706894,3.2587474773821206,0.3987577317664303,-0.13596802186584733,-0.11993892430531077,0.12591885637269692,3.259496886670218,3.259197122954979,54831115
0,0,0,0,0,0,0,0,0,0,0,0,0.5708445275836619,-0.43503386199877997,-0.6489593325804868,-0.43350947302692805,3.2590558956928124,3.2589559744543997,0.5809979416129519,-0.12197157406468082,-0.14193221830513694,0.5407469917234172,3.259264786155794,3.2592478703555905,54832171
0,0,0,0,0,0,0,0,0,0,0,0,0.43042450313860214,-0.3061016328455964,-0.5373555704779113,-0.9028930309883393,3.258708531702582,3.2586841414790317,0.7673573455044442,-0.14633150653022606,-0.11899439322881618,0.5762249322205701,3.258994133352534,3.2587167929073324,54833227
0,0,0,0,0,0,0,0,0,0,0,0,0.8350819152691263,-0.4065578826138833,-0.27020001056194426,-1.054758757920117,3.258990986226914,3.258780522201123,0.5962103600752783,-0.13906558025665047,-0.176723298635876,0.1016883494482457,3.259322614589049,3.2591849278432043,54834284
0,0,0,0,0,0,0,0,0,0,0,0,-0.12418046285873209,0.2679277858648045,-0.7264871986493109,-0.5622037008051515,3.2588513325275574,3.2587718676056703,0.4857163531442109,0.005512977303621447,-0.2720556345052283,0.5703748190849804,3.259256131560341,3.259265179546497,54835340
0,0,0,0,0,0,0,0,0,0,0,0,0.32782663438637666,0.2508432210496927,-0.18145814913012373,-0.5984090207110667,3.2585625837519863,3.2586672256788285,0.5724298921143879,-0.07774777147147316,-0.04729893771397324,0.7445749097555768,3.258990592836212,3.259107429874829,54836397
0,0,0,0,0,0,0,0,0,0,0,0,0.8002613306357063,-0.36997372746154394,-0.13093616139127748,-0.6488582311699665,3.2589083741794074,3.2588064859874826,-0.22307455814773536,-0.06289727245536714,-0.17508246601610972,0.41423922946920744,3.259642441230111,3.2592553447789365,54837453
0,0,0,0,0,0,0,0,0,0,0,0,0.8169635196880721,0.12503884137139812,-0.213790537570779,-0.5689035378579542,3.2590720247116116,3.259138114349617,-0.2818380811021425,-0.06083118448629194,-0.19608559561796135,-0.27745374172374504,3.2592423628857565,3.2593946050875906,54838509
0,0,0,0,0,0,0,0,0,0,0,0,0.6475356516284527,0.1918318619527652,-0.2240855722529378,-0.49431508711756317,3.259139687912427,3.2588257621319006,-0.03080170521756473,-0.3204395437764577,-0.07853455287629996,0.13006362081332454,3.258961481924233,3.2592958640212846,54839566
0,0,0,0,0,0,0,0,0,0,0,0,1.167969127651349,0.2161579628179029,-0.10742988674996932,-0.7539525573197075,3.2586943696372948,3.2586837480883295,-0.13276070746907084,-0.13522923412671495,-0.14250145465152914,0.03776944133871094,3.2593985389946147,3.259121985330818,54840622
0,0,0,0,0,0,0,0,0,0,0,0,0.7986610172582884,0.2871335133473293,-0.04610421015074374,-0.5221982267139228,3.258909947742217,3.2589807580686516,-0.31928297511136233,-0.09404909539807979,-0.10254712135161416,-0.10330557862586719,3.259678633174733,3.259337170045038,54841678
0,0,0,0,0,0,0,0,0,0,0,0,0.9067089208017493,0.24333339254062086,-0.31704418862392764,-0.04704166019459488,3.258924109807504,3.258723480549273,-0.23850845557552047,-0.17131181613347723,-0.23282750044196848,0.29833767394276545,3.2590452741438476,3.259047634488062,54842673
0,0,0,0,0,0,0,0,0,0,0,0,0.5002694487892924,0.47134107009662035,-0.4998190164350291,-0.31763388128684533,3.258992559789724,3.25853386623071,0.3403691101514232,-0.1297807728982893,-0.15995895385252876,0.2439329199710989,3.2591534565870113,3.2589292238866356,54843667
0,0,0,0,0,0,0,0,0,0,0,0,0.30861618621542286,0.6498916685452066,-0.5969991084336171,-0.9849012237669496,3.2588261555226032,3.2587789486383136,0.7599053454286272,-0.18711196030520919,-0.0948154204863811,0.3779929969302412,3.2591054629213168,3.2593580197522662,54844661
0,0,0,0,0,0,0,0,0,0,0,0,-0.6086143623130754,0.6831477383551285,-1.11433659962852,-0.32250327140131846,3.258621985748051,3.258614904715407,0.891919003953815,-0.2878730878678665,-0.23733811823584058,0.8734689800106263,3.2594040464644487,3.25952324384728,54845655
0,0,0,0,0,0,0,0,0,0,0,0,0.7534356419367363,-0.19761195154332536,-0.23085189233444836,-0.9087010513187708,3.25879468426641,3.2587333153168334,1.2790894125806582,-0.4050193315767445,0.4342045943980925,-0.20290502344429773,3.259505147874969,3.259029145125049,54846649
0,0,0,0,0,0,0,0,0,0,0,0,0.4365063233979134,0.159560449070984,-0.8070150622147395,-1.1201863193734072,3.2591605376196546,3.2588922451606086,1.8297211324836173,-0.49313216127540604,0.3735059825785139,0.2301980769870373,3.259236068634518,3.2592754077047594,54847644
0,0,0,0,0,0,0,0,0,0,0,0,0.390800224638012,-0.7977577922055473,-0.3447148972409841,-0.7447074824222901,3.2590995620607806,3.258804912424673,0.7785406563926525,-0.11619817211606169,-0.17574375578686663,0.04129343525093022,3.2594048332458536,3.2591593574475475,54848638
0,0,0,0,0,0,0,0,0,0,0,0,0.441648333269159,-0.23752104491246281,-0.824494197904372,-0.859303374207422,3.258592874836072,3.258740396349477,0.35346587341617025,-0.10144641416626145,-0.17180670163711328,0.25306469834622125,3.2591613244010595,3.2592238735227435,54849632
0,0,0,0,0,0,0,0,0,0,0,0,0.6647689181290767,-0.3797742700307691,-1.0147194522284808,-0.9493190347336572,3.258797438001327,3.258816320755043,0.6809239007143856,-0.19708166087647208,-0.10830793479775605,0.4627458766395898,3.2592199396157193,3.2586274932178845,54850626
0,0,0,0,0,0,0,0,0,0,0,0,0.23066149123448026,-0.49299526131096616,-0.665037603978825,-0.6411202360534949,3.259079105744255,3.2588513325275574,0.9502911031593206,-0.1339428465298231,-0.15196407460738118,0.641578929612509,3.2590822528698746,3.259167618652298,54851620
0,0,0,0,0,0,0,0,0,0,0,0,0.14380475804862475,-0.2326083818207242,-0.6202241087226997,-0.8418265988620042,3.25852245790034,3.258668799241638,0.4073265680463991,-0.08664902289498125,-0.27168702741706696,0.42277620110228076,3.2590138028876545,3.259315140165703,54852615
0,0,0,0,0,0,0,0,0,0,0,0,0.700174081346283,-0.43166407724190675,-0.6797661518771829,-1.3628454402500914,3.258880050048834,3.258789570187279,0.6156918544401949,-0.1745458810980178,-0.14714503850281696,0.30015435220651054,3.259444565706797,3.2593277286681803,54853609
0,0,0,0,0,0,0,0,0,0,0,0,2.5416815926649083,-1.4506396234797982,-0.13166078706512296,-1.452741510002793,3.2591263126285446,3.2589481066403514,0.6942201130652561,-0.12861043555860943,-0.20670832475523052,0.4172565361567182,3.259284455690915,3.259359593315076,54854603
0,0,0,0,0,0,0,0,0,0,0,0,1.0207119727983442,0.08864430053762204,-0.26971535321657103,-0.09174067875631794,3.258817107536448,3.2587045977955578,0.3096193325065771,-0.16796956872577293,-0.12646920996537328,0.2175344368856474,3.259357626361564,3.2594465326603093,54855597
0,0,0,0,0,0,0,0,0,0,0,0,0.8853985530613128,0.28869094713818394,-0.1365242763190599,-0.32711617077781807,3.258852119308963,3.2584567616530373,0.08699914062012917,0.4872202857995374,-0.23236683992944238,0.8233348755043596,3.259147555726475,3.259497673451623,54856591
0,0,0,0,0,0,0,0,0,0,0,0,0.981182894847738,-0.01249408870864972,-0.20659817535855476,-0.3043545847361785,3.258900506365359,3.258605069947847,0.34463307197488213,0.0042104606879306665,-0.13338187138818158,0.18490071116694343,3.259372181817553,3.259552748149961,54857585
0,0,0,0,0,0,0,0,0,0,0,0,0.8444457941586725,0.2964466448362642,-0.35058192617677764,-0.3262896569120475,3.258835596899461,3.2589732836453056,0.5252127796665167,-0.15031734112707865,-0.2740406839896064,-0.14946486347494883,3.259437091283451,3.2593017648818208,54858642
0,0,0,0,0,0,0,0,0,0,0,0,0.7208133245484023,0.39114286793981407,-0.5270967277403745,-0.5416057636267857,3.258727021065595,3.258649129706517,-0.6262717039909009,-0.2826897719728675,-0.21300611651016668,-0.35132582799504136,3.2592687200628183,3.25900160777588,54859698
0,0,0,0,0,0,0,0,0,0,0,0,0.9445326500573933,0.0961356396836805,-0.3725024428966573,-0.6696493231832175,3.2588635276393325,3.258588940929048,-0.03611444665365775,-0.35446469240959794,-0.06809750415056993,0.025157335419337203,3.2590358327669895,3.259061009771944,54860755
0,0,0,0,0,0,0,0,0,0,0,0,0.9123108044041162,0.16674258312494553,-0.2743026821974137,-0.7833250741154043,3.2589052270537886,3.258323402204919,0.41999374866411077,-0.13709272588404725,-0.18981258747727722,0.3706841910701026,3.259200663471301,3.2594264697344864,54861811
0,0,0,0,0,0,0,0,0,0,0,0,0.10427095940958969,0.768848296266591,-0.5306982196209692,-0.9370916649212437,3.258800978517649,3.259048027878764,0.6678259572775312,-0.06293267761858434,-0.1785891507374228,0.47406254697591627,3.2592734407512474,3.259374148771065,54862867
0,0,0,0,0,0,0,0,0,0,0,0,1.2716311182536026,0.010852469307478583,-1.328819111444844,1.7625744536607804,3.259144801991558,3.25888595090937,1.244497781336043,-0.08932368628068998,-0.2239825038889055,0.728731099215877,3.2593155335564052,3.259262819202282,54863924
0,0,0,0,0,0,0,0,0,0,0,0,-0.10640431718877759,-0.24899428474834975,-0.0867678268871101,-0.7727877107605589,3.259151489633499,3.2591231655029254,1.1496650516587557,-0.18483108101261625,-0.09861478789028977,-0.37078961977834934,3.2594335507671297,3.258917028774861,54864980
0,0,0,0,0,0,0,0,0,0,0,0,0.2554927057615168,0.11128393546151345,-0.4310692704998577,-0.6048157816905715,3.2587411831308817,3.2589441727333273,0.12717573966690776,-0.17670166214724325,-0.1957846517306151,0.38768535705630264,3.2591798137640726,3.259156997103333,54866036
0,0,0,0,0,0,0,0,0,0,0,0,0.651688677273831,-0.20776379200980566,-0.9892127858654005,-0.6575938651077586,3.2587282012377026,3.258537406747032,1.2522833767275068,-0.3624379351661128,0.20098921072354445,-1.6723428216389205,3.2591353606147004,3.258937091700684,54867093
0,0,0,0,0,0,0,0,0,0,0,0,0.201515960874076,-0.06453023726108517,-0.9142915265907676,-1.0571973868843778,3.2590023945572844,3.2588379572436756,1.5827968696113668,-0.20625749901026474,-0.17058246977120275,0.5321057715542045,3.2594241093902716,3.259009475589928,54868149
0,0,0,0,0,0,0,0,0,0,0,0,0.3443663530786458,-0.3247416644980507,-0.7008703828895547,-0.8325791636203722,3.2589764307709252,3.2588167141457456,0.9168477793750499,-0.14324181595347119,-0.15239759116144075,0.45381472752269836,3.2593147467750008,3.2591566037126305,54869206
0,0,0,0,0,0,0,0,0,0,0,0,0.061896879899129856,-0.06706524694743717,-0.8421177079817901,-0.9303808129287735,3.258797044610625,3.258751017898442,0.5729271379622385,-0.13191570424028687,-0.15330789724682536,0.4563568182416938,3.25906848419529,3.2591707657779176,54870262
0,0,0,0,0,0,0,0,0,0,0,0,0.27763902874458174,-0.37903626907304155,-0.9566526242080479,-0.8839835267047317,3.2591184448144963,3.2590023945572844,0.5989070533403221,-0.17124336615125726,-0.16380198762440534,0.4417962481732664,3.2590944479816493,3.259219152834314,54871318
0,0,0,0,0,0,0,0,0,0,0,0,0.4629032329205552,-0.14908248771220298,-0.8971837517242135,-0.6290828739503472,3.259136147396105,3.259075171837231,0.2265647204595471,-0.28132982031462433,-0.19194004439592888,0.2470241841106634,3.259496099888813,3.2594685625396442,54872375
0,0,0,0,0,0,0,0,0,0,0,0,0.20896127330795208,-0.33581285903607117,-0.7742263405592847,-0.7191500686585984,3.258677060446389,3.258560616798474,0.24179208776856512,-0.17938930742613166,-0.07173007389665531,0.09626742556898898,3.259284062300212,3.2593104194772744,54873431
0,0,0,0,0,0,0,0,0,0,0,0,0.8790873860224945,-0.8584564040251259,1.3718426790049885,-1.9666919072499165,3.258791930531493,3.2588363836808663,0.48546379631326153,-0.17806869483812984,-0.14898256647379,0.4469823178031823,3.2591526698056064,3.258994526743236,54874487
0,0,0,0,0,0,0,0,0,0,0,0,1.246923428407124,-0.46235641984420056,-0.18901439774208043,-0.6275757941694013,3.2590692709766946,3.258929617277338,0.607143867867454,-0.1879750595063042,-0.2501799643254237,0.20195498489796934,3.2593458246404916,3.25918256749899,54875544
0,0,0,0,0,0,0,0,0,0,0,0,0.9083945999615908,-0.03233553556627459,-0.09117576970765229,-0.5031844738941758,3.258627886608587,3.2586538503949463,0.9620220139052884,-0.41583324859538656,-0.1307516611518456,0.8643635588125655,3.259321041026239,3.259140081303129,54876600
0,0,0,0,0,0,0,0,0,0,0,0,0.6527524057331568,0.15011710525955024,-0.19801006293416773,-0.4807844139080541,3.258575959035868,3.258920962681885,0.7537444536381308,-0.5321695008479954,0.44174707433546473,-0.39515702666724045,3.2592773746582715,3.2590999554514832,54877656
0,0,0,0,0,0,0,0,0,0,0,0,0.6496202289605414,0.4694826924184194,-0.5253315836586456,-0.5285821710326875,3.2589473198589465,3.2589481066403514,-0.24731214610483002,0.08225799587464283,-0.2754108638061123,-0.2925863018734815,3.259305698788845,3.2589052270537886,54878713
0,0,0,0,0,0,0,0,0,0,0,0,0.841974907156814,0.16789364432020715,-0.11448416882564649,-0.5870856627327993,3.259142835038046,3.2588627408579276,0.031977943417780805,-0.13273120316638984,-0.25966894145833747,0.11314349331182161,3.2591109703911503,3.2595913004387973,54879769
0,0,0,0,0,0,0,0,0,0,0,0,0.6845686655722458,0.41260587127278703,-0.6814006902457106,-0.3316602267813953,3.2591314267076763,3.258671552976555,-0.14183269045742636,0.007219112779988381,-0.20666544516866744,0.04016794445132547,3.259279735002486,3.259221119787826,54880825
0,0,0,0,0,0,0,0,0,0,0,0,0.9133942023985627,0.2505194605016065,-0.1806878901347983,-0.5105479610619499,3.259275014314057,3.25888595090937,0.0049079424033096316,-0.1378834411958982,-0.20521225991395234,-0.1139326350608629,3.2593591999243734,3.259001214385177,54881882
0,0,0,0,0,0,0,0,0,0,0,0,0.9836813191987657,-0.1821505167663713,0.014686455093199621,-0.7243270903023589,3.2587761949033967,3.2588064859874826,-0.060529847208243275,-0.03261484296498811,-0.06207233215240623,0.1609310222781923,3.25963575358817,3.259030718687858,54882938
0,0,0,0,0,0,0,0,0,0,0,0,0.7655792195295357,-0.09623949482911763,0.6750360220713642,-1.4353489202676917,3.2587616394474077,3.2588092397223996,0.3893612014485837,-0.1012627007082344,-0.19891722189393304,0.15386493848144275,3.258996493696748,3.259204597378325,54883994
0,0,0,0,0,0,0,0,0,0,0,0,-0.9308253444225006,2.331193176650187,-0.8366598053765064,-1.2557145304339563,3.2588847707372626,3.2587793420290163,0.7842298727309551,-0.19589755486220772,-0.09481463370497628,0.10221470620807484,3.2589547942822925,3.2590153764504644,54885051
0,0,0,0,0,0,0,0,0,0,0,0,0.6676304420984318,0.5001608729554263,-0.3550772017332555,-0.5214877631053642,3.258695549809402,3.2588702152812736,0.5444920712103929,-0.1461041267042311,-0.2249455243284135,0.6805013990999936,3.259466595586132,3.259348578375408,54886107
0,0,0,0,0,0,0,0,0,0,0,0,0.8597337436358623,-0.22340657990057228,0.0009642006116152538,-1.0848374110266459,3.258961481924233,3.2588890980349894,1.2834391335772435,-0.294326268950256,0.5183713219608452,-0.6363401456284696,3.2593887042270544,3.2593690346919337,54887163
0,0,0,0,0,0,0,0,0,0,0,0,0.2952133649841982,-0.5759180874726877,-0.4222278144631164,-0.4768548341816466,3.2590614031626464,3.2587891767965766,2.0182536266152415,-0.34148791330908695,-0.06798892831670383,0.46803540802424043,3.258870608671976,3.25896580922196,54888220
0,0,0,0,0,0,0,0,0,0,0,0,0.4732289520775022,-0.5342611592127274,-0.4685908756960482,-0.6870057209736968,3.2590153764504644,3.2588737557975955,0.8347439926557532,-0.13037085895190942,-0.21500021398070024,0.7161158461708839,3.259261639030175,3.2593359898729313,54889276
0,0,0,0,0,0,0,0,0,0,0,0,0.5204641604976845,-0.7316311754740685,-0.7798235034732226,-0.4353037280206356,3.2587396095680723,3.2587097118746886,1.0490687548004096,-0.22878816470958765,-0.13349241417555976,0.4956793660735328,3.2594142746227113,3.259254164606829,54890332
0,0,0,0,0,0,0,0,0,0,0,0,1.0282040987258074,-0.4173839947443002,-0.8447490983902333,-0.855828160742302,3.2589142750399436,3.2588930319420135,0.8506590069125899,-0.1207855010969044,-0.12849635225490955,0.35635454134399186,3.2591282795820566,3.259208137894647,54891388
0,0,0,0,0,0,0,0,0,0,0,0,0.5389704393113184,-0.432180992624878,-0.8546759193749331,-0.92727341977041,3.258788783405874,3.2589882324919976,0.5484834132770793,-0.06075565347142857,-0.20948723667707878,-0.029249778896543847,3.259527177754304,3.258791537140791,54892445
0,0,0,0,0,0,0,0,0,0,0,0,0.31771609994364974,-0.3564843602757883,-0.9799743986099241,-0.6410541464154894,3.2588340233366515,3.258378870293959,0.5404141831891756,0.0057844168882866965,-0.1463212783719633,0.26255131513492047,3.259197909736384,3.2594980668423252,54893501
0,0,0,0,0,0,0,0,0,0,0,0,0.20303051507836758,0.36635846690636475,-1.1603448224478747,0.9873190030239823,3.2587750147312895,3.2586027096036325,0.42466801699018675,-0.10967575427004746,-0.1509585679720125,0.4389795707439864,3.2590468477066574,3.259271080407033,54894557
0,0,0,0,0,0,0,0,0,0,0,0,0.27130701199853563,0.9690582000086545,-0.8337054412013818,-0.4790672634920196,3.2588442514949145,3.258585007022024,0.8701680386266754,-0.15831064680941662,-0.22894945489757715,0.3297884738193123,3.2593359898729313,3.259140081303129,54895613
0,0,0,0,0,0,0,0,0,0,0,0,0.8731460062439448,0.10687009178043505,-0.44003189087294226,-0.5010054827935079,3.2588623474672254,3.2588277290854126,0.8385712907995332,-0.26352141660707196,0.2676264485867558,-0.07065690406047154,3.259403259683044,3.2591353606147004,54896670
0,0,0,0,0,0,0,0,0,0,0,0,0.7612822128870741,0.12485276756915659,-0.11213719989504811,-0.6185282014045955,3.258758098931086,3.2581931898824203,-0.25021851661426026,0.14728901949990028,-0.00047914987553952635,-0.7837735395161556,3.2593123864307865,3.259376902505982,54897726
0,0,0,0,0,0,0,0,0,0,0,0,1.0173433682135782,0.21762924404492903,-0.10703413570334144,-0.5200849318605579,3.258740396349477,3.258926076761016,0.38779589984368085,-0.008192361377759144,-0.2734584657500346,0.17166468759354203,3.259197909736384,3.2589563678451023,54898782
0,0,0,0,0,0,0,0,0,0,0,0,0.951863485796867,0.21377952263111144,-0.2480068740852921,-0.6354648513155998,3.2586617182089945,3.2587710808242654,-0.08666279156956572,-0.2173849484187303,-0.1922307601250124,-0.3552510804237223,3.2595094751726954,3.259341103952062,54899838
0,0,0,0,0,0,0,0,0,0,0,0,0.663897557723231,0.044744258492500605,-0.2140336530248705,-0.5384735868541701,3.258950466984566,3.258819467880662,-0.7797542667095979,-0.2645556407637168,-0.24141089217792655,-0.06483236132053867,3.259303731835333,3.2588548730438793,54900895
0,0,0,0,0,0,0,0,0,0,0,0,0.7219411756922216,0.30988644479351574,-0.3838537316147961,-0.6174286743913501,3.258732528535429,3.258489019690635,0.0015723826375463768,-0.30355246109395756,-0.08009631396488118,-0.3395917701234543,3.258771474214968,3.25904566753455,54901951
0,0,0,0,0,0,0,0,0,0,0,0,0.6588432739786236,0.17391842292766843,-0.09197907352198045,-0.8945008271337541,3.2584335516015948,3.2586652587253164,-0.18859228951839083,-0.28916301598108,-0.2602865648611265,0.3652502852976662,3.2590948413723515,3.259267146500009,54903007
0,0,0,0,0,0,0,0,0,0,0,0,-0.04176943800085044,0.6044275050672895,-0.5758236737041085,0.05137131826535681,3.2590739916651237,3.2586750934928768,0.23251278788003776,-0.14258564026184561,-0.2163460035736565,0.04210893417703321,3.259549207633639,3.25929507723988,54904063
0,0,0,0,0,0,0,0,0,0,0,0,1.8826266744883864,-1.0022466066177615,-0.045965343232791805,-0.2709801043248301,3.259176273247751,3.2585724185195466,0.6743228047278886,-0.1757075638422446,-0.12307385481284318,0.4412966419812014,3.259250624090507,3.2590673040231826,54905120
0,0,0,0,0,0,0,0,0,0,0,0,1.0111675275763903,-0.0344987910388459,-0.3504465997751474,-0.9307726300683773,3.2588218282248764,3.258872575625488,0.7067405589509677,-0.06835045437222174,-0.2672070940979831,1.095853137475626,3.259173519512834,3.2591554235405233,54906176
0,0,0,0,0,0,0,0,0,0,0,0,0.6020592930387607,-0.32724205580259036,-0.6851335746209114,-0.806692875229463,3.258845038276319,3.258788783405874,0.6696981036303166,-0.009547985738275736,0.05099484336314718,0.46193981909034476,3.259388310836352,3.259471316274561,54907232
0,0,0,0,0,0,0,0,0,0,0,0,0.433936695329749,0.2812590099881899,-0.7596299719369378,-0.8801176762721152,3.2590130161062496,3.258732921926131,1.4122722282734188,0.04472773608299924,-0.2533188287399803,0.00667702039206271,3.259311599649381,3.2593717884268507,54908288
0,0,0,0,0,0,0,0,0,0,0,0,-0.11301564133353725,-0.3102818024494412,-0.5138721124973431,-0.8818922617307021,3.2587053845769622,3.2584563682623346,1.0192430519155327,-0.1873495682894669,-0.1294699942433827,0.6344813745595662,3.2593355964822286,3.2588871310814773,54909283
0,0,0,0,0,0,0,0,0,0,0,0,0.35498357474608117,-0.34727036324386157,-0.6097288381730125,-1.2956692571245738,3.258415455629284,3.258465022857788,0.9753823489406523,-0.07126390591429543,-0.16883266792686794,0.6523413124491348,3.259197122954979,3.258939452044898,54910277
0,0,0,0,0,0,0,0,0,0,0,0,0.16336493055402404,-0.0926521650138098,-0.49935796253180054,-0.7249254375607297,3.2590079020271183,3.2591337870518906,1.074043556933827,-0.14164464970167276,-0.1710742081492195,0.9028300884759531,3.2590956281537564,3.25923803558803,54911271
0,0,0,0,0,0,0,0,0,0,0,0,0.5156246680765949,-0.14914621700599395,-0.9453737193791532,-0.4585684607706619,3.258800978517649,3.2580621907785163,1.097813403345752,-0.10693146073001154,-0.08250937253348499,0.6669180115363611,3.259058256037027,3.2592195462250166,54912265
0,0,0,0,0,0,0,0,0,0,0,0,0.4492580830166439,-0.4725141611712171,-0.49909321058907635,-0.10358685297809278,3.2586872886046514,3.258518523993316,0.8353450936490409,-0.12517849507075487,-0.22568273850473622,0.530092791329955,3.259415848185521,3.259180600545478,54913259
0,0,0,0,0,0,0,0,0,0,0,0,0.48353264135511415,-0.3439525060597069,0.3471787032101992,-0.407969761844845,3.2590141962783568,3.2590279649529412,0.3660079557905144,-0.059387833999137156,-0.13899083602319193,-0.040680532536570134,3.2593064855702503,3.2592962574119873,54914254
0,0,0,0,0,0,0,0,0,0,0,0,-0.4989248393684434,0.8679351529997769,-1.8670220454957538,0.30728377190634865,3.2587179730794396,3.258730954972619,0.12965213413860013,-0.12214663292725478,-0.07917892684685311,-0.20894553767985555,3.259267539890711,3.259088547121113,54915248
0,0,0,0,0,0,0,0,0,0,0,0,0.5876548990791916,0.10864821775534364,-0.26152338522951424,-0.7790095781099292,3.2588824103930483,3.2586023162129303,0.30125623956397046,-0.20328464547212666,-0.05527493420540502,-0.00856844288926636,3.2589728902546033,3.259164078135976,54916242
0,0,0,0,0,0,0,0,0,0,0,0,0.9632430986455797,-0.020519259037883167,-0.5288579379150793,-0.5861867649777847,3.258835596899461,3.2587431500843937,0.5194751762718172,0.13485275922450535,-0.17754548520392002,1.5794660305340325,3.259373755380363,3.259201056862003,54917236
0,0,0,0,0,0,0,0,0,0,0,0,0.5470384892271147,0.057095939766876665,-0.1365337176959178,-0.6169357558412261,3.2586896489488657,3.258666045506721,0.13376110002530814,-0.1127264991672634,-0.10823987820623852,-0.5002855778080914,3.2589917730083195,3.259227414039065,54918230
0,0,0,0,0,0,0,0,0,0,0,0,0.5294346486848174,0.2150753516048612,-0.42662592251609827,-0.8062664397080469,3.2586904357302706,3.2588359902901636,0.027426019600155303,-0.1442665987332581,-0.23252931028953913,-0.4354366940780513,3.259031112078561,3.259047634488062,54919225
0,0,0,0,0,0,0,0,0,0,0,0,0.5033142928259722,0.0800353384060071,-0.4142112987293361,-0.7480300602948736,3.258928043714528,3.2586314271249086,-0.2707436765126796,-0.17772841188054225,-0.22720398035096886,0.1480561313696064,3.2593568395801586,3.2590708445395045,54920219
0,0,0,0,0,0,0,0,0,0,0,0,0.7401236939577691,0.1419452001983166,-0.3209871436342172,-0.6181147477763591,3.2587891767965766,3.259107036484126,-0.021242311148919002,-0.20348212760473816,-0.009932721845236045,0.06205935025922659,3.2593989323853174,3.2595370125218643,54921213
0,0,0,0,0,0,0,0,0,0,0,0,0.5266010554553336,0.43471757587403964,-0.5647788363431497,-0.22569729396072552,3.2591027091863998,3.258771474214968,0.2152346748393386,-0.13774064037092212,-0.22710012520553174,0.14756911368001863,3.2593674611291243,3.2591566037126305,54922207
0,0,0,0,0,0,0,0,0,0,0,0,0.5139118449582869,0.4479252753168672,-0.5309381879494414,-0.418034662966092,3.259060222990539,3.258560616798474,0.5817634799198484,-0.13949044221525694,-0.14151207703495944,0.15585903595197628,3.2593277286681803,3.258912701477134,54923201
0,0,0,0,0,0,0,0,0,0,0,0,-0.20932594648908928,1.4500231802491164,-0.9268729480353531,-1.5435006789565895,3.2585381935284365,3.2588053058153754,0.5733181683204375,-0.11964820857622725,-0.2158731479493556,-0.06404518652500946,3.2594363045020467,3.259289176379344,54924195
0,0,0,0,0,0,0,0,0,0,0,0,-0.42645912485827503,1.0965439315490642,-1.2011705161536355,-0.5654027539971773,3.259054322130003,3.258627099827182,0.20549668139179722,-0.11580517480435071,-0.2232629922941914,0.3544843619447186,3.258972103473199,3.2591892551409307,54925252
0,0,0,0,0,0,0,0,0,0,0,0,0.2940752856821162,-0.2740969388600515,-1.0495447575503298,-0.697503745258301,3.258998067259558,3.258586973975536,0.42114441646866996,-0.035284785662267885,-0.16139010922790875,0.8643958168501635,3.259075565227933,3.2590653370696705,54926308
0,0,0,0,0,0,0,0,0,0,0,0,0.47961250300556457,-0.39923688164196985,-0.8181735894886957,-0.9909027923229685,3.258441026024941,3.258605069947847,0.5843740206210638,-0.39858857376439255,-0.04922340503017962,0.4630118087544213,3.2593894910084593,3.259167618652298,54927364
0,0,0,0,0,0,0,0,0,0,0,0,0.7531409923006287,-0.594358276648316,-1.0239971785541986,-0.42595204424286415,3.2589768241616275,3.25870341762345,1.339345459860022,-0.08868954046839958,-0.17216704752052397,0.22728069153793948,3.259265572937199,3.25940758698077,54928421
0,0,0,0,0,0,0,0,0,0,0,0,0.5552308506048739,-0.4449213439132385,-0.7597074699053131,-0.7906751859992963,3.2586723397579593,3.2590362261576917,1.2559969849582893,-0.21331768194647813,-0.20382201717162335,0.7262015969993587,3.259206170941135,3.259409947324985,54929477
0,0,0,0,0,0,0,0,0,0,0,0,0.7309659517962874,-0.3108054054743535,-0.9124477043685559,-0.7539057438261203,3.258557863063557,3.258505935490839,0.8287054453737074,-0.14715605344248456,-0.1322245159416814,0.38619479968485826,3.2592014502527054,3.259184534452502,54930533
0,0,0,0,0,0,0,0,0,0,0,0,0.26004462957914226,-0.4829630116180195,-0.7213727261272342,-0.6747661560495085,3.259085006604791,3.258587367366238,0.6883526907387603,-0.0655141074078211,-0.13497746407717037,0.3881271348151129,3.259353299063837,3.2589957069153437,54931590
0,0,0,0,0,0,0,0,0,0,0,0,0.33743913619984817,-0.5309212721492376,-0.3170689722381797,-0.7269537600223731,3.2589756439895203,3.2588993261932524,0.8651129681006631,-0.17572290607963872,-0.05618445350938481,0.2386205719257083,3.259273047360545,3.2592222999599336,54932646
0,0,0,0,0,0,0,0,0,0,0,0,0.4674146374958321,0.13882364497466623,-0.14042002444505983,-1.2817444064312464,3.25870656474907,3.258573992082356,0.6249617129518643,-0.11409038473253066,-0.1751092165838738,0.17168750425428203,3.2591534565870113,3.2592518042626146,54933702
0,0,0,0,0,0,0,0,0,0,0,0,2.1160383601234387,-0.642825584748457,0.03035953406805206,-0.908897353279275,3.2587152193445226,3.2586188386224313,0.5046443467908318,-0.16924494138299717,-0.11359471244748978,-0.14676344952147596,3.2594048332458536,3.25914676894507,54934759
0,0,0,0,0,0,0,0,0,0,0,0,0.29913232316164057,0.629855493289887,-0.36621094539295973,-0.3911051024323824,3.258818287708555,3.259077925572148,0.9434996060728557,-0.24142544763391585,-0.07742833822111346,0.06961481208977842,3.2589205692911825,3.2590031813386893,54935815
0,0,0,0,0,0,0,0,0,0,0,0,0.8059765107603681,0.052436620287492304,0.24566619940593235,-0.4920538773600909,3.258991379617617,3.258898146021145,1.0425923636665777,-0.3207196379565761,0.18354902071345097,-0.436151091593634,3.259507114828481,3.2591727327314297,54936871
0,0,0,0,0,0,0,0,0,0,0,0,0.5303921616544915,0.3275890264021189,-0.31494033514742076,-0.30831366876526695,3.2588623474672254,3.2586621115996968,-0.2699698770010324,-0.4066782601688218,-0.13103922975530977,-0.37777466509040175,3.2595755648107008,3.259235675243816,54937928
0,0,0,0,0,0,0,0,0,0,0,0,0.7776401850748282,0.32781483266530426,-0.3876397237348227,-0.28400291013752343,3.258968562956877,3.2592474769648883,-0.28149465101893556,-0.18480708417976907,-0.22482750711768948,0.05203339481751856,3.2595075082191833,3.25918256749899,54938984
0,0,0,0,0,0,0,0,0,0,0,0,0.9261424215009715,0.43557634777740806,-0.020117213740016668,-0.3794568037339215,3.259220726397124,3.2588737557975955,-0.2062504179776213,-0.28552729910937535,-0.2315898932921759,0.4848611217571642,3.258990592836212,3.2593894910084593,54940040
0,0,0,0,0,0,0,0,0,0,0,0,0.9389181779525492,0.09657741744249075,-0.01477536139194505,-0.3729713646139341,3.2591192315959012,3.2585086892257555,0.3069828280190024,-0.135940091125976,-0.2458058531052891,0.1611076547035759,3.259545273726615,3.2596534561697785,54941096
0,0,0,0,0,0,0,0,0,0,0,0,0.4791829203585291,0.373601183128498,-0.2925154915470471,-0.3612971021291139,3.2586892555581635,3.258738036005263,-0.00922265162737985,-0.12795622682049596,-0.21469730313984192,0.05950113052143222,3.259085006604791,3.259048027878764,54942153
0,0,0,0,0,0,0,0,0,0,0,0,0.46416247655898046,0.7245615511609973,-0.35887892948137873,-0.1429050735122053,3.2586337874691234,3.2587710808242654,0.5094779383513854,-0.052110106004489176,-0.15546564524956288,0.175215038682823,3.259114510907472,3.2589736770360083,54943210
0,0,0,0,0,0,0,0,0,0,0,0,1.2441437297038709,0.6492028414252807,-1.220930531135861,1.1284951243990808,3.2586833546976273,3.2587199400329516,0.5068445809894301,-0.1992158054370648,-0.2341839115838899,-0.015508248270541222,3.259116084470282,3.258924109807504,54944267
0,0,0,0,0,0,0,0,0,0,0,0,1.2355823678472482,-0.30416929771534174,-0.10385396526503149,-0.686941204898501,3.2588757227511076,3.258902866709574,0.5534841958861584,-0.15514463843639353,-0.19604979706404174,0.37888087974558826,3.2591609310103573,3.259321827807644,54945324
0,0,0,0,0,0,0,0,0,0,0,0,0.2496119081511388,0.2786028359654946,-0.3284615669800719,-0.4578556368178888,3.2587160061259275,3.2587832759360404,0.9330932418219139,-0.04423639109568489,-0.0843441467695411,0.26923305621541216,3.2591625045731667,3.2594575475999767,54946381
0,0,0,0,0,0,0,0,0,0,0,0,0.2412916947950953,0.4616148783701513,-0.35493754803389876,-0.8970602270436556,3.259016163231869,3.258962662096341,0.4812549091881405,0.6475517806472516,-0.2445312672294697,0.8005016923548808,3.2593163203378106,3.259186501406014,54947437
0,0,0,0,0,0,0,0,0,0,0,0,0.24240381031081798,0.01195907735336749,-0.39438873462542706,-0.6805234289793287,3.2588462184484266,3.2589307974494455,0.8785594556998557,-0.07602472019490245,-0.07023990991591333,0.5481718478407679,3.2595724176850815,3.258936304919279,54948494
0,0,0,0,0,0,0,0,0,0,0,0,0.4027231100467574,-0.17251401812005257,-0.5132855669600447,-0.5796387767361135,3.258822615006282,3.25851104956997,0.6892952548617428,-0.10028787854765397,-0.11860060913570035,0.4905322421231558,3.2591432284287487,3.259164078135976,54949551
0,0,0,0,0,0,0,0,0,0,0,0,0.06004715681638203,0.013898886906967984,-0.43589460085566056,-0.6245061665184696,3.2587561319775737,3.258965022440555,0.7237787036631945,-0.13614701463544543,-0.09064547904079902,0.3016641857223732,3.258814353801531,3.2590342592041797,54950608
0,0,0,0,0,0,0,0,0,0,0,0,0.32844858508689223,-0.46572463103826417,-0.9143021481397328,-0.6316139497296749,3.259120018377306,3.258813567020126,0.77277158174176,-0.14671230873016222,-0.13213246251731664,0.2233983186958216,3.259103102577102,3.259077925572148,54951665
0,0,0,0,0,0,0,0,0,0,0,0,1.0026750090926897,-0.41299886858449797,-0.42560704059684756,-0.6062410362054153,3.2586853216511393,3.258544487779675,0.6960411186267278,-0.17076933035484912,-0.13232443718009437,0.27808552719182095,3.2592490505276976,3.2593973588225076,54952721
0,0,0,0,0,0,0,0,0,0,0,0,0.3867329581657598,0.13479375061914334,-0.8256779105279339,-0.7007086993108629,3.2588253687411983,3.2588847707372626,0.9301412379910037,-0.16008955956573004,-0.14691883884892926,0.5901049363738222,3.259079105744255,3.2587521980705496,54953778
0,0,0,0,0,0,0,0,0,0,0,0,1.2156457204396391,-1.2821566798873758,1.2519651236492542,-2.0957390064882047,3.259362740440695,3.259267539890711,0.5326207199836634,-0.14443890386091515,-0.06925210586215327,-0.06776351544422095,3.25933913699855,3.2592348884624105,54954835
0,0,0,0,0,0,0,0,0,0,0,0,0.8832734564868755,-0.11959274048718696,-0.2956063622959092,-0.3854446036153559,3.2589937399618316,3.2586062501199544,0.668735476581511,-0.22596597981047387,-0.12491256295592343,0.13180988214133765,3.259460694725596,3.2593651007849096,54955892
0,0,0,0,0,0,0,0,0,0,0,0,0.684789751147002,0.3256562978811619,-0.28091164599795887,-0.690966378565595,3.258761246056705,3.2585346530121146,0.524861088378559,0.15520089330683864,-0.06085911522616329,-0.27155052084332953,3.25907989252566,3.25896580922196,54956949
0,0,0,0,0,0,0,0,0,0,0,0,0.9955853218537952,0.2777196738385765,-0.2844537358824892,-0.5900002944469802,3.259117658033092,3.259163684745274,0.479385516570272,0.012584961960907215,-0.25035266284378327,0.12538502518952194,3.2593293022309897,3.259031112078561,54958005
0,0,0,0,0,0,0,0,0,0,0,0,0.5202525162997861,0.2584120581641266,-0.42649295645868257,-0.9660180766604038,3.2588348101180564,3.258607430292061,0.1443488173900625,-0.3094238173274776,-0.2268440278582606,0.530208841587167,3.2593580197522662,3.259405226636556,54958999
0,0,0,0,0,0,0,0,0,0,0,0,0.6875564679570756,0.20630470589455435,-0.4484724817839243,-0.529147866862758,3.258531505886496,3.2586326072970158,-0.18975200530910555,-0.20566151209610842,-0.11078590283225807,-0.5183618805839872,3.25918256749899,3.2591758798570485,54959993
0,0,0,0,0,0,0,0,0,0,0,0,0.6915163387675689,-0.1516863407714773,-0.3784556243962794,-0.691527747097939,3.2588607739044155,3.2591699789965123,-0.47561604685974673,-0.2079376707002724,-0.2378290698324525,0.13750027865174755,3.2590995620607806,3.2590468477066574,54960987
0,0,0,0,0,0,0,0,0,0,0,0,0.5716092791091536,0.13052546149795788,-0.46640086965571276,-0.7043184523962083,3.258618051841027,3.258867068155654,0.3021834614495589,-0.19174492260753184,-0.19052069074162134,-0.012998808979846116,3.2592407893229467,3.2593273352774776,54961981
0,0,0,0,0,0,0,0,0,0,0,0,0.7554006284952913,0.19555451816970326,-0.5972076055058962,-0.33701624119475376,3.259177060029156,3.2589272569331236,0.3622569754430026,-0.3371865793688988,-0.23786290143286007,0.9032577041694765,3.2595810722805347,3.25926085224877,54962975
0,0,0,0,0,0,0,0,0,0,0,0,0.7832798341846268,-0.04056920296778714,0.22035740856616598,-1.5208150173205157,3.25888595090937,3.2588300894296274,0.8657183963916774,-0.21185112140788093,-0.23979681012592435,0.5556360430283597,3.259439451627666,3.2591117571725556,54963968
0,0,0,0,0,0,0,0,0,0,0,0,0.5417446305447376,-0.5112631453589374,0.7085568438240103,-2.193651591974686,3.2589976738688557,3.2588568399973914,0.8344261329682031,-0.1283661399324107,-0.19774373742863385,0.4155346650522548,3.2595739912478914,3.25944181197188,54964962
0,0,0,0,0,0,0,0,0,0,0,0,0.42546423977187153,0.3190308116711153,-0.5645534234706668,0.06056997305988944,3.258946533077542,3.2585806797242975,0.7735013214947368,0.08527254882723674,-0.1851461869652494,0.32539862697108113,3.259134180442593,3.2591078232655315,54965956
0,0,0,0,0,0,0,0,0,0,0,0,0.7022047641521411,-0.23793213819648482,0.03388274119886651,-0.8412109424127272,3.2587521980705496,3.2589508603752684,1.5022623184039972,0.1296961938972704,-0.2629529670420846,2.540825574496457,3.2592769812675693,3.2590346525948823,54966950
0,0,0,0,0,0,0,0,0,0,0,0,0.5247249751955241,0.11271273049267894,-0.4930609575582692,-0.8059029466990169,3.258727021065595,3.258586187194131,-0.4317801274991187,0.45119120492830334,-0.25141049044257285,0.6654431897930132,3.2594335507671297,3.258852512699665,54967944
0,0,0,0,0,0,0,0,0,0,0,0,0.4094225537088577,0.1932547561233945,-0.5163123150244134,-0.8193596624564721,3.259155030149821,3.2587797354197185,1.2256366641088323,-0.1518912973274347,-0.09251959234709649,0.6229483393369125,3.2589138816492413,3.2589929531804263,54968937
0,0,0,0,0,0,0,0,0,0,0,0,0.2585426638773279,-0.434136537806575,-0.5731383887694346,-0.3528364482923088,3.2588328431645444,3.258883197174453,0.8479650673824628,-0.10718991842149715,-0.15100577485630212,0.46337136785642713,3.259466988976835,3.2592624258115794,54969931
0,0,0,0,0,0,0,0,0,0,0,0,0.28163941879742366,-0.38403351116579904,-0.7019254567534275,-0.5644460278089078,3.259007508636416,3.258792717312898,0.9159087557683891,-0.15571702190840506,-0.14484960375423475,0.35050639516191423,3.2593548726266466,3.259337170045038,54970925
0,0,0,0,0,0,0,0,0,0,0,0,0.30335615913345326,-0.2703026855352742,-0.7742947905415046,-0.6727213111783636,3.259317107119215,3.258756525368276,0.6722984161732692,-0.1272512706817711,-0.14281538043205502,0.14302309072292932,3.2593875240549472,3.2590452741438476,54971919
0,0,0,0,0,0,0,0,0,0,0,0,0.46772620293214356,0.2837381581947992,-0.5232359913868894,-0.6451607519579831,3.259082646260577,3.2588422845414025,0.14607816291787182,-0.12780713174428127,-0.17979764697523676,0.08495311557687706,3.2591573904940354,3.2590704511488022,54972913
0,0,0,0,0,0,0,0,0,0,0,0,0.3241264014394762,0.5634837941508047,-0.3339564483113823,-0.5597139310495771,3.258519310774721,3.258727021065595,0.30650171118995084,-0.19389913009394763,-0.23397974180933734,0.4635169224163201,3.2594803642607166,3.259521276893768,54973906
0,0,0,0,0,0,0,0,0,0,0,0,-0.4755503506124438,2.3116990937827935,-1.4225239899783122,-0.6504491031705263,3.2588635276393325,3.258900112974657,0.5077206620837047,-0.17509348095577726,-0.011735238043694262,-0.1052607304168618,3.2591392945217246,3.2589823316314614,54974963
0,0,0,0,0,0,0,0,0,0,0,0,0.604881871328577,-0.14859507663191276,-0.3018368842407327,-0.5090625177696367,3.258804125643268,3.2588218282248764,0.3903950322145262,-0.09559630103067171,-0.21467999394893572,1.0039889340387504,3.2590397666740136,3.2588757227511076,54976019
0,0,0,0,0,0,0,0,0,0,0,0,0.45980213401343034,0.11805064893372642,-0.19127875462517197,-1.0261088998447536,3.2585433076075683,3.2585645507054983,0.3940858237845687,-0.5086510310949124,-0.2262126357808871,0.6063130267039569,3.2591727327314297,3.2590157698411666,54977075
0,0,0,0,0,0,0,0,0,0,0,0,0.5644629436091118,0.1273795160507579,-0.28094193708204473,-0.40244655638296084,3.258847005229831,3.2588501523554507,0.3968545075481543,-0.18796443795733903,-0.088819359400196,0.31152609724117486,3.259362740440695,3.259437091283451,54978131
0,0,0,0,0,0,0,0,0,0,0,0,0.581917295684492,0.035821370580359765,-0.2782090518723788,-0.35841866235955505,3.259033472422775,3.2588584135602012,0.11894364582820485,-0.104837442021065,-0.018132557646341044,-0.21013121725692954,3.2590417336275257,3.2587883900151713,54979188
0,0,0,0,0,0,0,0,0,0,0,0,0.8670535644356685,-0.4881868467553671,-0.18500456631238058,-0.06716162766952845,3.2585991690873106,3.2585216711189355,0.1945616000368118,-0.1656351882976518,-0.23316660322744884,0.013401641059117442,3.2592805217838907,3.259279735002486,54980244
0,0,0,0,0,0,0,0,0,0,0,0,0.6826194146417873,0.058287913595189283,-0.2990135191695117,-0.3623596504163325,3.2590614031626464,3.2588867376907746,0.4129154697555863,-0.09581227252629668,-0.12902231562403627,0.4028198841595511,3.2594201754832475,3.259311993040084,54981300
0,0,0,0,0,0,0,0,0,0,0,0,0.8704048598295283,-0.08514784397457169,-0.0119799270605954,-0.5728315440215521,3.259003968120094,3.258948500031054,0.43049688702784616,-0.06007744790046786,-0.1945466511901201,0.13251798540568177,3.2592777680489737,3.259349365156813,54982356
0,0,0,0,0,0,0,0,0,0,0,0,0.5736379949614996,0.16710214222695138,0.02035482172427436,-0.49727220502760466,3.2590063284643085,3.2583800504660667,0.42142962472791967,-0.1291470204767013,-0.18094320070066458,0.16105848086577423,3.259302551663226,3.2590346525948823,54983413
0,0,0,0,0,0,0,0,0,0,0,0,2.499418449332529,-0.1253256231934575,-1.5601029467705425,0.9968528266969712,3.258723480549273,3.258873362406893,0.15990978001472708,-0.126783922527304,-0.12593459200079346,0.12391020344617408,3.258792717312898,3.259265179546497,54984469
0,0,0,0,0,0,0,0,0,0,0,0,0.9749244421630433,-0.26076532134596364,-0.5250302463805968,-0.6768251629859403,3.2588662813742495,3.259028751734346,0.14494677125773087,-0.15128822938063494,-0.07733156410831978,-0.04418013622523978,3.259206564331837,3.2592372488066252,54985525
0,0,0,0,0,0,0,0,0,0,0,0,0.4590066980131504,0.07257665068824895,-0.4855538827841142,-0.6877944693320357,3.2589146684306463,3.258767540307944,1.0644271212133312,-0.42644771652790503,-0.21587118099584354,0.7777880999789356,3.2593859504921374,3.2593395303892527,54986581
0,0,0,0,0,0,0,0,0,0,0,0,0.03260697515093984,0.41295284187231557,-0.454504341424029,-0.9215975787159894,3.258622379138753,3.2586396883296596,-0.06561756916255583,0.13169619222834017,-0.17566271730216948,1.1392563270635994,3.259151489633499,3.259114510907472,54987638
0,0,0,0,0,0,0,0,0,0,0,0,0.8900885570154854,-0.28147694843732696,-0.7931110612286403,-0.31645134883539067,3.258642048673874,3.259138507740319,0.7513522447767549,-0.09811832882384405,-0.040662436564259115,0.28221219566013755,3.258983118412866,3.259254164606829,54988694
0,0,0,0,0,0,0,0,0,0,0,0,1.1764836760143846,-0.43305156624931884,-0.8743002145648258,-0.558231241492181,3.2589166353841583,3.2589603017521265,1.0339948098653329,-0.21228267100842843,-0.16138066785105085,0.40740288584266726,3.2594048332458536,3.2592400025415422,54989750
0,0,0,0,0,0,0,0,0,0,0,0,0.14223788288091216,-0.38387851522904815,-0.6854596955132122,-1.2390040801768396,3.2589878391012954,3.2585673044404153,0.8032943729513136,-0.17307027257326515,-0.14630239561824748,0.22079289207373762,3.259439451627666,3.2593293022309897,54990806
0,0,0,0,0,0,0,0,0,0,0,0,-0.401026022556546,-0.2419938971989032,-0.9221727159229178,-0.8691157184977195,3.258765966745134,3.2585342596214124,0.7232067135818855,-0.12958014364005846,-0.10332878867730959,0.432928041568761,3.259116084470282,3.2590110491527375,54992044
0,0,0,0,0,0,0,0,0,0,0,0,0.24826021769764633,-0.21614734126893773,-0.18610055280930432,-1.0685412011791706,3.258871395453381,3.2586396883296596,0.6757783503268182,-0.1905191171788117,-0.1921430339983742,0.5496742069332846,3.2592695068442232,3.2592498373091026,54993282
0,0,0,0,0,0,0,0,0,0,0,0,0.49366166516085447,0.416996504902423,-1.1955237860111934,0.3665992220162418,3.258867068155654,3.258747083991418,0.7233782319281377,-0.0870994552492446,-0.09950975173828026,0.4604193640255169,3.2594174217483305,3.259474070009478,54994520
0,0,0,0,0,0,0,0,0,0,0,0,0.23106471670445403,-0.7007779360744876,0.797983991859435,-0.31828258255512504,3.2589681695661747,3.2586381147668497,0.696549379414246,-0.11042083626041845,-0.048354011577845996,0.4377305552638239,3.259020490529595,3.2590787123535527,54995757
0,0,0,0,0,0,0,0,0,0,0,0,0.5520247163802047,0.15038579110929862,-0.25561308331645527,-0.6024302604711367,3.2587616394474077,3.258854479653177,0.87007913232793,-0.07917145242350726,-0.21014262558729951,0.9505432665995677,3.2592852424723198,3.259216005708695,54996995
0,0,0,0,0,0,0,0,0,0,0,0,0.8428993753074855,0.16378271147998705,-0.2308263219387915,-0.1143873947128528,3.2588383506343783,3.2588013719083513,-0.0449204975271818,0.19944515221657183,-0.03997793674205979,-0.607468415196945,3.2593949984782933,3.259497673451623,54998233
0,0,0,0,0,0,0,0,0,0,0,0,0.6704097474109825,0.24281765732975688,-0.22832750419706155,-0.597433805159784,3.259094054590947,3.258997280478153,0.47977064606793474,0.0828827003100753,-0.13542356913370718,0.5311946786874149,3.259530718270626,3.2590244244366193,54999471
0,0,0,0,0,0,0,0,0,0,0,0,0.56996726631728,0.3151150006192923,-0.24252969533559027,-0.32897612201882864,3.258970529910389,3.2587997983455415,-0.15811867214663888,-0.039876441940837136,-0.09357741994588613,0.1355860394938039,3.2589398454356004,3.2588863443000724,55000708
0,0,0,0,0,0,0,0,0,0,0,0,0.8401381659672458,0.19790620778873058,-0.19301950848335125,-0.026474014100314865,3.2588418911506998,3.258756918758978,0.15952661747057645,-0.14915133108512532,-0.21995300292408498,-0.00684342465918358,3.2589398454356004,3.2591727327314297,55001946
0,0,0,0,0,0,0,0,0,0,0,0,0.4443088345895808,0.4644642072277316,-0.2480182824156621,-0.3051641828017453,3.259313566602893,3.2587179730794396,0.037054650432425784,-0.21372405454207116,-0.20002697706544126,0.057678944787853334,3.2588092397223996,3.2592478703555905,55003184
0,0,0,0,0,0,0,0,0,0,0,0,0.7627975538727705,0.32868737324325714,-0.35388640807705024,-0.783142934220187,3.2585732053009515,3.258769900652158,0.17087790618871523,-0.14288619075848943,-0.22646125870481237,0.10988543151443379,3.2590873669490055,3.259109396828341,55004422
0,0,0,0,0,0,0,0,0,0,0,0,0.7345139425413539,-0.16277327093759428,-0.10385947273486527,-0.5475129184142254,3.2589032601002765,3.2589044402723832,0.5759173006912828,-0.1142320053853995,-0.23473465856726866,0.23856038314823902,3.259200663471301,3.2594429921439874,55005659
0,0,0,0,0,0,0,0,0,0,0,0,0.7091481100497377,-0.09273910435904316,0.16053566462226682,-1.599405038285856,3.2592828821281055,3.258906013835193,0.20268197091602932,-0.1355919403543401,-0.18204705501163662,0.15444951706522908,3.2591849278432043,3.2592765878768666,55006897
0,0,0,0,0,0,0,0,0,0,0,0,1.4394633936242334,-1.4122651472407755,-0.11138070957430715,-1.4008867145641701,3.2588788698767264,3.2587203334236543,0.5269692691527925,-0.13388462470586596,-0.18143021839025236,0.03280327711144413,3.25950042718654,3.259284062300212,55008135
0,0,0,0,0,0,0,0,0,0,0,0,0.3312621153905529,-0.27134359733386004,-0.5300023114683999,-0.43303110993279337,3.258754558414764,3.2586597512554825,1.2146307724274126,-0.20603562665410358,-0.19436097077858097,0.22085150728839723,3.2596609305931246,3.2593867372735423,55009373
0,0,0,0,0,0,0,0,0,0,0,0,0.7723730769602151,-0.31764253588229846,-0.35476917681326586,-0.7041713242735057,3.259106643093424,3.2591054629213168,1.431977955338711,0.1239137439624958,-0.21887196527385297,0.8031645540195171,3.259262819202282,3.2592069577225393,55010610
0,0,0,0,0,0,0,0,0,0,0,0,0.6401387262509735,-0.41831318358340064,-0.4422435334019104,-0.7807939983360765,3.2587207268143565,3.2584941337697666,0.923337545792764,-0.0933626286223684,-0.1835757712812151,0.47320259490044053,3.2592738341419496,3.2590649436789683,55011423
0,0,0,0,0,0,0,0,0,0,0,0,0.44261646778779834,-0.3830881933078996,-0.8341609876347764,-1.0787858818514204,3.258627099827182,3.2583127806559538,1.1396316217937017,-0.17971778866264684,-0.128128531948153,0.33574283549104156,3.2595437001638055,3.2592734407512474,55012236
0,0,0,0,0,0,0,0,0,0,0,0,0.35931834689597447,-0.19678071698912583,-0.923470905240882,-0.8532128993526576,3.258804125643268,3.2590916942467323,0.5180884740458099,-0.02911169875999674,-0.2102362525744739,-0.020552697247588306,3.259139687912427,3.2589949201339383,55013049
0,0,0,0,0,0,0,0,0,0,0,0,0.31106779707286325,-0.41930492154418486,-1.0490388571070262,-0.537742666929086,3.258797044610625,3.2584307978666778,0.4745444505863727,-0.1420364668412765,-0.12646960335607568,0.39856418354084294,3.2593765091152798,3.2593316625752045,55013861
0,0,0,0,0,0,0,0,0,0,0,0,0.6114975227710631,-0.586265049727565,-0.6322437682442389,-0.7152283567462392,3.2589839051942713,3.258673519930067,0.5477277097377431,-0.11456206018472435,-0.14064071662911373,0.2554820842125516,3.2596798133468403,3.259199089908491,55014674
0,0,0,0,0,0,0,0,0,0,0,0,0.19198174381038471,0.23925825825432043,-0.4084048519617142,-1.19663000066638,3.2590417336275257,3.25879468426641,0.6414329816619135,-0.13327801624274446,-0.08709434117011322,0.574414941598766,3.259250230699805,3.2590082954178206,55015487
0,0,0,0,0,0,0,0,0,0,0,0,0.4482561168975969,1.4790274833473542,-1.9916962136860148,0.14365999027013662,3.2584811518765866,3.2590079020271183,0.7448471361216469,-0.106545544450944,-0.0920506706298197,0.3558148093002807,3.2592938970677725,3.258989019273402,55016300
0,0,0,0,0,0,0,0,0,0,0,0,0.34331639329390445,0.1832846621614292,-0.7536885921583881,-0.5171195527457658,3.259173519512834,3.258531505886496,0.35927664748151866,0.03707707370246335,-0.20811233617214395,0.30573932000867365,3.2594835113863363,3.2595657300431404,55017112
0,0,0,0,0,0,0,0,0,0,0,0,0.5563362784786555,0.03866794570302316,-0.1899125087156902,-0.6738251654893357,3.258700270497831,3.258546454733187,0.571527847233754,0.04129461542303746,-0.22231610087348233,1.5433094910752165,3.259059042818432,3.2588961790676327,55017925
0,0,0,0,0,0,0,0,0,0,0,0,0.6704974735376207,0.4787584517906251,-0.2711854542714899,-0.608522702279413,3.258457548434442,3.2586361478133377,-0.09334374586865257,0.35234077600726793,-0.1348846238714008,1.3597636174873848,3.2591534565870113,3.258994133352534,55018738
0,0,0,0,0,0,0,0,0,0,0,0,0.7752881020650985,0.3238695173108002,-0.03116873874291643,-0.40684741817085956,3.2587097118746886,3.258957548017209,0.4810995198606872,-0.34026879552230777,0.012843026261690408,-0.09167498250901489,3.2592073511132416,3.2594068001993657,55019551
0,0,0,0,0,0,0,0,0,0,0,0,0.7282377872750505,0.21150808471537647,0.009750581950018636,-0.40754411310483374,3.259151489633499,3.2589567612358046,-0.04012467147405999,0.06855855805379843,-0.20258952410096218,-0.053179735324351225,3.259589726875988,3.259491772591087,55020363
0,0,0,0,0,0,0,0,0,0,0,0,0.6064408786822413,0.10899086105714573,-0.035250560671157914,-0.20303916967382069,3.258677060446389,3.258780128810421,0.2297177469393905,-0.17382400915908922,-0.2410749365180655,0.4982489941416972,3.259319074072727,3.259370214864041,55021176
0,0,0,0,0,0,0,0,0,0,0,0,0.47338552157706276,0.4345110457552726,-0.16956948871248823,-0.7149911421526839,3.2588749359697022,3.258644409018088,0.38511808933235275,-0.24631136015789035,-0.1809105492723643,-0.09235082773576113,3.2594496797859285,3.259382409975816,55021989
0,0,0,0,0,0,0,0,0,0,0,0,0.5157607812596299,0.5935345165174623,-0.6040687327466885,-0.32031365875168544,3.2592187594436117,3.2591943692200624,0.1696261369736358,-0.17085508952797526,-0.0684987626670316,0.37663265188129563,3.259173126122132,3.259495706498111,55022802
0,0,0,0,0,0,0,0,0,0,0,0,0.8180551788872693,1.0764334054509883,-1.0048713093842636,0.35460395271825224,3.259033079032073,3.2585747788637613,0.48517150702136835,-0.28874169453879533,-0.1967767830821017,0.232466367777153,3.2593013714911185,3.2592219065692314,55023614
0,0,0,0,0,0,0,0,0,0,0,0,1.601036036138062,0.10772453638607697,-0.8560889787780022,0.37543477719244683,3.2585806797242975,3.2585913012732624,0.7786641810732103,-0.17585272501143515,-0.10407583762119264,0.32196668648322657,3.2591168712516865,3.2590409468461212,55024671
0,0,0,0,0,0,0,0,0,0,0,0,1.3526223960664743,-0.2790662502129376,-0.2738247124939814,-0.4955877060398705,3.2590122293248447,3.2590374063297993,1.4076365122361794,-0.08747868388637112,-0.22244670658668358,0.42568453856522304,3.2590720247116116,3.259219152834314,55025727
0,0,0,0,0,0,0,0,0,0,0,0,0.6712441290908013,-0.15459153110880028,-0.6395317243971496,-0.3048187857650263,3.258940632217006,3.2590724181023143,1.8020213129545823,-0.1896898495781242,-0.13026975754138917,0.9971077438721352,3.2591609310103573,3.259208137894647,55026783
0,0,0,0,0,0,0,0,0,0,0,0,0.49656842906098714,-0.33799421048095346,-0.36242810039855244,-0.5234798936223857,3.2587392161773696,3.258406014252426,3.0059396631645754,-0.41755275935563557,-0.23287352715415086,0.5439059190637969,3.2594209622646524,3.2591817807175847,55027840
0,0,0,0,0,0,0,0,0,0,0,0,0.4006530881706581,-0.4314237155227322,-0.5923708668197234,-0.4240020065310009,3.2587758015126944,3.2590043615107964,0.7707648957687492,-0.024669137557642166,-0.07238506941617363,0.3058427817634084,3.259559435791902,3.2594579409906794,55028896
0,0,0,0,0,0,0,0,0,0,0,0,0.21812373615786265,0.08136617915227164,-0.6997177481314835,-0.8977498409449864,3.2588922451606086,3.2588379572436756,0.8718509640515999,-0.10288701091849933,-0.22231413391997026,0.4408316541709488,3.259022064092405,3.2592785548303786,55029952
0,0,0,0,0,0,0,0,0,0,0,0,0.38360432190946603,-0.24800490713178003,-0.8561302848017556,-0.7503561795182442,3.2589532207194827,3.258560616798474,0.7476956781978222,-0.07823793628668024,-0.1872063740737884,0.24242938070647485,3.2593745421617673,3.2587663601358363,55031009
0,0,0,0,0,0,0,0,0,0,0,0,0.49179856679422457,-0.36105280650291516,-0.7160021562578863,-1.190424655726511,3.2590728114930165,3.2589988540409625,0.6905104387414978,-0.09885082231173781,-0.11394207643772082,0.7205658817965843,3.2592639993743893,3.2593175005099173,55032065
0,0,0,0,0,0,0,0,0,0,0,0,0.43523173752209393,-0.5044799094772231,-0.554796940660112,-0.3148651975232598,3.258791537140791,3.2586617182089945,0.38297843730192627,-0.09435279302034295,-0.1396418976356861,0.46796735143272294,3.2590153764504644,3.2591459821636652,55033121
0,0,0,0,0,0,0,0,0,0,0,0,1.0324845829587679,-0.5720770206543232,1.2126201525473776,-1.2030816081859597,3.2589728902546033,3.258775408121992,0.7994651078540215,-0.08172180434725336,-0.12361791415428092,0.5829357842130404,3.2593879174456495,3.2590547155207057,55034178
0,0,0,0,0,0,0,0,0,0,0,0,2.672067793854212,-0.04602238488464175,-0.20651162940402382,-0.209622563078709,3.258792717312898,3.2588198612713644,0.5075271138581173,0.0018241526870909554,-0.0995813488461195,0.2037177686354838,3.259341497342765,3.2591577838847376,55035234
0,0,0,0,0,0,0,0,0,0,0,0,0.45619041397457283,0.16600143504159867,-0.43456966096993216,-0.4289980684516511,3.2589103411329194,3.2586267064364796,0.8450602704358423,-0.05630207732940642,-0.21437668971737497,1.1759931178084753,3.259029145125049,3.2593969654318053,55036290
0,0,0,0,0,0,0,0,0,0,0,0,0.5561376161739368,0.43002049088722355,-0.11315057434446506,-0.6519479217467214,3.259147555726475,3.2590299319064533,0.09600778770539614,-0.5741883485541759,0.3581495831191042,-0.1663334567944356,3.2595708441222717,3.2592777680489737,55037347
0,0,0,0,0,0,0,0,0,0,0,0,0.3814103819621064,0.308642936783187,-0.26008082152376427,-0.5122053160912174,3.259223086741338,3.2584170291920933,-0.23516188087008963,-0.21567763277025612,-0.18604823184588334,0.045028679970345487,3.2595106553448026,3.25940916054358,55038403
0,0,0,0,0,0,0,0,0,0,0,0,0.549449974232909,0.14122136130587593,-0.07968128677383504,-0.59026268604549,3.258822615006282,3.2583595941495407,-0.1445573144623416,-0.12849202495718298,-0.12539171283146297,-0.4036900643932896,3.2593395303892527,3.2591499160706894,55039459
0,0,0,0,0,0,0,0,0,0,0,0,0.39992767571540777,0.1480112848295313,-0.08534847323280254,-0.6781756732673254,3.2588328431645444,3.2588808368302384,0.19978976247188596,-0.16773864838345626,-0.2052000648021775,-0.37149732965199106,3.2591463755543675,3.2591778468105606,55040515
0,0,0,0,0,0,0,0,0,0,0,0,0.3248549610203458,0.2450662785847519,-0.4861494763075681,-0.44097366821452,3.2589481066403514,3.2588930319420135,-0.29668621977403403,-0.2568971105691326,-0.1872236832646946,0.13420130422130874,3.2594437789253923,3.2591377209589147,55041749
0,0,0,0,0,0,0,0,0,0,0,0,0.8431912712086762,0.2824938634030656,-0.726997426390341,-0.4011342049997097,3.258730954972619,3.258463449294978,0.12832168678303799,-0.27707097257029684,-0.21065521367254417,0.4142262475760278,3.2592683266721156,3.2593296956216924,55042983
0,0,0,0,0,0,0,0,0,0,0,0,0.6782696936452023,0.09413210083628902,-0.2376205727601734,-0.11677330932299008,3.258997280478153,3.259020097138893,0.3999729156461853,-0.10213524128618731,-0.20422799637651398,0.5009165764947625,3.259235281853113,3.2591412614752366,55044217
0,0,0,0,0,0,0,0,0,0,0,0,0.9474197444224052,-0.7875064238913564,0.9730306593216251,0.12487440405778932,3.258979184505842,3.2590318988599654,0.6910124052777773,-0.17490780054423813,-0.1326981583473871,0.39370502158463255,3.259178633591966,3.259376902505982,55045451
0,0,0,0,0,0,0,0,0,0,0,0,-0.3862636430577806,1.1269400509524405,-0.5879900679576477,-0.8824524500909388,3.2590358327669895,3.258701057279236,0.6581760833473305,-0.029800525879922612,-0.20911666263540538,0.5689664803703404,3.2594599079441915,3.259166438480191,55046685
0,0,0,0,0,0,0,0,0,0,0,0,1.1201406860519274,-0.2961118693485104,-0.590701316678681,-0.2899859893305289,3.2589547942822925,3.258464236076383,1.5567178197762752,-0.41381122038498164,-0.06245352774304482,-0.1257367164774795,3.2593442510776818,3.259140868084534,55047919
0,0,0,0,0,0,0,0,0,0,0,0,0.6581819842078667,-0.17000575900146472,-0.45758183688900905,-0.4534909669746121,3.2588863443000724,3.259046060925252,0.12841137986318824,0.24862056358105702,-0.2125871554120964,0.2271371039315586,3.259338743607848,3.2588332365552466,55049153
0,0,0,0,0,0,0,0,0,0,0,0,0.21209226990846036,-0.18700063073642617,-0.5471690949403161,-0.556329984227417,3.259050388222979,3.258826548913306,0.7961614127351537,-0.14894794809197762,-0.22667486985622284,0.31407802272773055,3.2593285154495852,3.2592116784109684,55050387
0,0,0,0,0,0,0,0,0,0,0,0,0.0673748454302365,-0.5669330438295656,-0.9119008912922013,-0.37032463196809673,3.258896572458335,3.2586986969350216,0.6644219475295481,-0.1944671862682326,-0.06247005015254618,0.3438372425838998,3.258891458379204,3.258743936865799,55051621
0,0,0,0,0,0,0,0,0,0,0,0,0.2772251817256429,-0.34344188492797434,-0.8013034226063994,-0.8611440493040143,3.2586038897757397,3.2585303257143883,0.6297905838239888,-0.09374146386879251,-0.21922404995251296,0.4474480923948398,3.259385557101435,3.2590157698411666,55052855
0,0,0,0,0,0,0,0,0,0,0,0,0.43981041190748354,0.0012293459450418885,-0.862249477177796,-0.8736644951897258,3.25863654120404,3.2588068793781853,0.8656660754282565,-0.13430988005517483,-0.16818475343999306,0.5213787938807957,3.2591900419223356,3.2594579409906794,55054089
0,0,0,0,0,0,0,0,0,0,0,0,0.43580884168253436,-0.22578974077579267,-0.44326438227467324,-1.0358264369757697,3.2590956281537564,3.258762426228812,0.9523575845190984,-0.1791088198553109,-0.16526068034895422,0.9091550241893558,3.2592612456394727,3.2592718671884375,55055323
0,0,0,0,0,0,0,0,0,0,0,0,-0.028319409885336145,-0.15523590507935345,0.061694677078089365,-1.148539560859151,3.258910734523622,3.2588131736294237,1.3079041013603332,-0.12229061392433808,-0.1461808378912017,0.8024643185692213,3.2594551872557624,3.25917115916862,55056557
0,0,0,0,0,0,0,0,0,0,0,0,0.8816444255881817,-1.3199052715188588,0.6769168230196025,-1.2667601545763199,3.2591078232655315,3.258664471943911,0.8857974512335599,-0.1002505064309247,-0.12840469222124723,0.40384073303231394,3.2595228504565776,3.2593108128679766,55057791
0,0,0,0,0,0,0,0,0,0,0,0,0.4797938561193771,0.3013380648300725,-0.2922944059722907,-0.4384890125380769,3.2590783189628505,3.2589433859519223,-0.001569628902629483,-0.011893774496766865,-0.1651222068217047,-0.030988959191913506,3.25911254395396,3.2590173434039764,55059025
0,0,0,0,0,0,0,0,0,0,0,0,0.8388391898678768,0.011767102690589748,-0.022529485527215662,-0.5258024723294344,3.258727414456297,3.2586267064364796,-0.13983741281478557,0.020092036735062206,-0.10596529316488422,-0.9988717077817567,3.2594233226088667,3.2593316625752045,55060258
0,0,0,0,0,0,0,0,0,0,0,0,0.7940528385702178,0.37193989419220613,-0.02332688848100763,-0.4363647027450446,3.2588977526304426,3.258889491425692,-1.8716856922728649,0.14079099187743568,-0.20399235534576837,0.18384681747517795,3.2594221424367595,3.2591109703911503,55061292
0,0,0,0,0,0,0,0,0,0,0,0,0.812768794628238,0.28665121634617047,-0.001888668762286754,-0.20835977892396196,3.2589929531804263,3.258799011564137,-0.3775583002040744,-0.15937909595717142,-0.18351872962936516,0.1730014292003428,3.2589091609608127,3.2591585706661426,55062325
0,0,0,0,0,0,0,0,0,0,0,0,0.9932953945750468,0.07341890018211604,0.18508678496918496,-0.31499304950154416,3.258577532598678,3.258839137415783,-0.1520734372226521,-0.12871232375053449,-0.11788345788520073,-0.14063245542436306,3.259230167773982,3.259257705123151,55063358
0,0,0,0,0,0,0,0,0,0,0,0,0.7881252274662527,0.36356421274712236,-0.20444121413722208,-0.18494595109772097,3.258695943200104,3.258731741754024,0.1709121311798252,-0.11989879845366458,-0.14419539501612127,0.028033414844681602,3.2594429921439874,3.2592309545553864,55064391
0,0,0,0,0,0,0,0,0,0,0,0,1.0034295324599185,0.16387043760662526,0.13990350245279104,-0.5629798606610131,3.2590527485671936,3.2589225362446945,0.13689091645370915,-0.13539603178453824,-0.18298175132057087,0.00042840247492819723,3.259108610046936,3.259278161439676,55065424
0,0,0,0,0,0,0,0,0,0,0,0,0.5600837183098457,0.4278060946233385,-0.4778800103521359,-0.5862009270430717,3.2588127802387215,3.2587101052653913,0.21863396389889286,-0.16423983147619145,-0.207355845851403,0.2507932604304863,3.259123558893628,3.2591884683595262,55066458
0,0,0,0,0,0,0,0,0,0,0,0,1.3964964743252366,0.279834542254751,-1.2494844018798352,-0.012814702131116644,3.2588403175878904,3.2587577055403836,0.5740656106550229,-0.15219027426126888,-0.20031572584101268,0.14101522457781132,3.2593584131429685,3.2593820165851133,55067491
0,0,0,0,0,0,0,0,0,0,0,0,-1.0404051113611592,0.7467507537306253,-0.7874509558023162,-0.12619895055281524,3.258974070426711,3.2589886258827,0.6348751586526821,-0.09692517482342419,-0.1074464091594707,0.2711413945128196,3.2591868947967164,3.2592687200628183,55068524
0,0,0,0,0,0,0,0,0,0,0,0,0.5022308948315256,0.12495111524475994,-0.38524987521766124,-0.8460795457457955,3.258863921030035,3.258335990707396,1.01543817704179,-0.008061362273855479,-0.21512413205196046,0.5458626444176011,3.2591003488421855,3.2589776109430324,55069557
0,0,0,0,0,0,0,0,0,0,0,0,0.37240920930018534,0.330459991748332,-0.5991245983987568,-1.1093755494803845,3.2590059350736063,3.258541340654056,2.8388206051374203,-0.5696844184022449,-0.19582753131717817,-0.2373876854643447,3.2594496797859285,3.2591868947967164,55070590
0,0,0,0,0,0,0,0,0,0,0,0,0.5589818309523857,-0.18451125437155416,-0.4582631895855891,-0.6449050480014143,3.258845038276319,3.258974070426711,1.1685678683004221,-0.15104511392654346,-0.21361587209890748,0.7819812514759601,3.259168012043,3.259448106223119,55071624
0,0,0,0,0,0,0,0,0,0,0,0,0.3314670719465103,0.16226973083850513,-0.7533904020059587,-0.7963887925611487,3.2588702152812736,3.2587687204800506,0.924238803891993,-0.1057091958176131,-0.1565584846208673,0.3368785544489091,3.2594807576514193,3.258991379617617,55072657
0,0,0,0,0,0,0,0,0,0,0,0,0.25476060566432546,-0.2269903691995584,-0.46134658591110533,-0.5868795260047348,3.258970529910389,3.2585751722544636,0.5884003744602649,-0.11859628183797381,-0.1398322987356542,0.4360000295639073,3.259220726397124,3.258936304919279,55073690
0,0,0,0,0,0,0,0,0,0,0,0,0.34930852047306543,-0.2911519993724822,-0.5580349395316767,-0.5416769673439226,3.2588348101180564,3.258751017898442,0.8330508390725658,-0.13725991693257295,-0.10942123048558598,0.5577422568490811,3.25923803558803,3.2592384289787324,55074723
0,0,0,0,0,0,0,0,0,0,0,0,0.4692564927645317,-0.4184449694687092,-0.25284990702270355,-0.5346494358360094,3.258843071322807,3.258617658450324,0.821734562126942,-0.06553259677083453,-0.10323398151802796,0.5107218397524166,3.2594343375485346,3.2594807576514193,55075756
0,0,0,0,0,0,0,0,0,0,0,0,0.5915600885820494,0.5335086027990106,-1.1418314626015977,-0.5355821651914316,3.2590700577580995,3.258786423061659,0.921581056306488,-0.129184785984133,-0.20384168670674402,0.710995472788271,3.2595193099402557,3.2591015290142926,55076789
0,0,0,0,0,0,0,0,0,0,0,0,1.8536054555899446,-1.2156378526255909,-0.36651346284311564,0.5795884227262047,3.2586538503949463,3.258725447502785,0.5789731596676302,-0.09989566801734781,-0.16770206304813182,0.7364195271038445,3.2590995620607806,3.259090120683923,55077630
0,0,0,0,0,0,0,0,0,0,0,0,0.33259964377875845,-0.07707979405877519,-0.03485126910820831,-0.7115548743671029,3.258701057279236,3.258415455629284,0.4488957701797211,-0.15523708525146068,-0.18672053655630785,0.7294462835128644,3.2590138028876545,3.258811600066614,55078470
0,0,0,0,0,0,0,0,0,0,0,0,0.6269601377201244,0.3191653512913407,-0.37471959289545925,-0.4440499835073928,3.2590433071903355,3.258409161378045,0.8582211563850828,-0.04813607312870897,-0.1981914160479803,1.180846772294852,3.2592348884624105,3.2592785548303786,55079310
0,0,0,0,0,0,0,0,0,0,0,0,1.4523024859788995,0.4003592253159553,-0.24981843826990582,-0.6684337459127601,3.2590728114930165,3.2584787915323723,0.3108471048888093,0.3243348985117553,-0.15777996275186093,0.592527436319284,3.259497673451623,3.2593336295287165,55080150
0,0,0,0,0,0,0,0,0,0,0,0,0.6238326816359377,0.24541088884006607,-0.3258502394974517,-0.5708272183927559,3.2588277290854126,3.258791930531493,0.20845930677167257,-0.18525436940841308,-0.16918750634044485,0.17582912156929034,3.259193189047955,3.2588072727688875,55080990
0,0,0,0,0,0,0,0,0,0,0,0,0.6830446699910963,0.4817254044682269,-0.2215407277990255,-0.9771046134358183,3.2589166353841583,3.2589366983099817,0.24298091447125844,-0.190199683928452,-0.2091382991240381,0.3349997204541827,3.2592777680489737,3.259309239305167,55081831
0,0,0,0,0,0,0,0,0,0,0,0,0.6299314176954528,0.24221616294576678,-0.12492161094207893,-0.45579702327215943,3.2589937399618316,3.2589064072258953,0.2287484322486439,-0.1840655427057198,-0.1973338243167191,0.3184808514691414,3.2594174217483305,3.259522457065875,55082671
0,0,0,0,0,0,0,0,0,0,0,0,0.5444834166149397,0.22258478672323068,-0.04250271827014902,-0.5037725929942838,3.258835596899461,3.2582344959061738,0.06925997367620154,-0.1715136255638153,-0.14926856151444454,-0.016943730943647733,3.2590318988599654,3.2591794203733704,55083511
0,0,0,0,0,0,0,0,0,0,0,0,0.7973191615723564,0.10212225939300769,0.029752138823525766,-0.6618900849688154,3.258879263267429,3.2588568399973914,0.3757593245219379,-0.05637406782794807,-0.21318392910765757,0.21026064279802353,3.2590468477066574,3.25901144254344,55084351
0,0,0,0,0,0,0,0,0,0,0,0,1.6085096727025119,-0.6088216792132471,0.7019061806090093,-0.5180491349755686,3.258965022440555,3.258802945471161,0.4007416010787011,-0.18148489969788786,-0.21125316754021256,0.20193846248846797,3.258993346571129,3.259191615485145,55085191
0,0,0,0,0,0,0,0,0,0,0,0,0.05819467999871731,1.3625374153301018,-0.09404319453754359,-0.31106189621232705,3.2587726543870748,3.2582915375580237,0.6609113289012108,-0.168623384073184,-0.15905061472065624,0.0792985176203868,3.259118051423794,3.259083039651279,55086032
0,0,0,0,0,0,0,0,0,0,0,0,0.8373494192778371,0.02855347735327212,-0.2124659910757531,-0.7993899702298606,3.25887611614181,3.2587120722189034,0.6862724407043982,-0.31192656897623167,-0.21649195152425188,0.7675807914234151,3.2596593570303147,3.2590413402368235,55086872
0,0,0,0,0,0,0,0,0,0,0,0,0.5957559938139907,-0.0843905668724259,-0.4757187218330767,-0.24757650465685185,3.258976037380223,3.2589547942822925,1.4062486298380648,-0.32584866593464207,0.531073907741774,-0.6270651730376688,3.2591967295642768,3.259472103055966,55087712
0,0,0,0,0,0,0,0,0,0,0,0,0.3150548118418231,-0.2814262010367156,-0.509112084998141,-0.7584981868860944,3.258821434834174,3.258643228845981,1.401481521306219,-0.3805232859281642,-0.14880672082981117,0.07898065793283676,3.259349365156813,3.259185714624609,55088552
0,0,0,0,0,0,0,0,0,0,0,0,0.13108879698381387,-0.3390508579076359,-0.5922980895397769,-0.7533656183917067,3.2586235593108603,3.2589512537659706,0.42539854352456846,-0.0590837429861716,-0.18762179465553697,0.20782122705235803,3.259585399578261,3.2590873669490055,55089392
0,0,0,0,0,0,0,0,0,0,0,0,0.1370238825111249,0.18566742964594715,-0.8897175895831094,-0.8477837142686503,3.2592624258115794,3.2591754864663462,0.805166519304099,-0.18873036965493792,-0.16856594903063166,0.5438929371706172,3.259515769423934,3.259379656240899,55090232
0,0,0,0,0,0,0,0,0,0,0,0,0.18393178986689923,-0.27759457559520906,-0.6359156770605655,-1.0663633902506102,3.2586558173484583,3.2587604592753,0.5781191084526907,-0.1580517957272286,-0.17747270792397352,0.22546322649278955,3.258939058654196,3.2589437793426246,55091461
0,0,0,0,0,0,0,0,0,0,0,0,0.2687118135347144,0.005628634170130988,-0.6197193884515033,-0.9547954267019542,3.2588654945928446,3.258671946367257,0.5204004312038936,-0.14852780682180008,-0.15527131024257065,0.3640618519856753,3.2594233226088667,3.259286422644427,55092690
0,0,0,0,0,0,0,0,0,0,0,0,0.16754785389278576,-0.13240901618111325,-0.6124507084430109,-0.19027757528752984,3.258686108432544,3.258878083095322,0.7305426634004907,-0.11132248775034996,-0.12549084728847112,0.19811116434468798,3.2590232442645126,3.259330089012395,55093918
0,0,0,0,0,0,0,0,0,0,0,0,0.07485713659013946,1.1161064643986778,0.3908556927270523,-2.0072752722829903,3.2587411831308817,3.2588076661595897,0.5648822980978844,-0.12989721654620368,-0.18206003690481623,0.3368895693885766,3.2592431496671614,3.258959121580019,55095147
0,0,0,0,0,0,0,0,0,0,0,0,0.7717920388927506,0.48047756916017165,-0.37202801370954675,-0.36518734278528003,3.259210498238861,3.2589138816492413,0.6184459827477912,-0.15402386832521775,-0.2082984099743855,0.34399577903697237,3.2591479491171773,3.2593285154495852,55096375
0,0,0,0,0,0,0,0,0,0,0,0,0.9461978729007092,-0.1598429035953168,-0.0366148396271276,-0.5267473967966314,3.2589012931467645,3.2586967299815095,0.4342683236918835,-0.09875876888737307,0.047688787900064936,0.3761409135032789,3.259370214864041,3.2597065639146043,55097604
0,0,0,0,0,0,0,0,0,0,0,0,0.9658237416534116,0.15903566587396453,-0.005926430931857935,-0.5908177603265954,3.2589681695661747,3.2587966512199222,-0.044653778630945516,-0.36697766387196346,0.19889794574951478,0.6500218808677054,3.259164078135976,3.2593017648818208,55098832
0,0,0,0,0,0,0,0,0,0,0,0,0.8621157243389754,0.08080874452695185,-0.22857573373028442,-0.32680853924853076,3.2593458246404916,3.258917028774861,-0.32194544338529624,0.1508673013290526,-0.19533382598564933,0.12205182576797315,3.2592997979283087,3.2590649436789683,55100061
0,0,0,0,0,0,0,0,0,0,0,0,0.9483886657224495,0.132653311807312,-0.19662611444307737,-0.340892319785633,3.2586845348697344,3.258892638551311,0.47625806048608543,-0.28381762311668673,-0.23638729290810737,0.03442129307047046,3.2590082954178206,3.2591628979638694,55101290
0,0,0,0,0,0,0,0,0,0,0,0,0.43007595897626383,0.3895641910510291,-0.19212965871449217,-0.1669884523139539,3.258529538932984,3.2586617182089945,-0.1727673617324068,-0.17655964810367203,-0.1879601106596125,0.11126583948920243,3.2590873669490055,3.2590861867768988,55102518
0,0,0,0,0,0,0,0,0,0,0,0,0.3026807072974094,0.3505972684141717,-0.21532358113808406,-0.2943392508434356,3.25910113562359,3.258900899756062,-0.027682116947426432,-0.12468715008344056,-0.10629298761999459,0.09979102609050584,3.2593088459144646,3.258955581063697,55103747
0,0,0,0,0,0,0,0,0,0,0,0,0.5839534859601838,0.03765811176992795,-0.3070957311505951,-0.5536647622185662,3.2590787123535527,3.258865101202142,-0.018487789450620348,-0.2397370147391575,-0.20758519263090996,0.4355326814094402,3.25935211889173,3.259528357926411,55104975
0,0,0,0,0,0,0,0,0,0,0,0,0.2414706875646934,0.35613345576923555,0.25906862724645463,-1.3723391380714343,3.2586530636135413,3.2586609314275896,0.33266455324465666,-0.1461151416438987,-0.14606754136890665,0.057414586235831525,3.2591038893585074,3.259108610046936,55106204
0,0,0,0,0,0,0,0,0,0,0,0,0.109028233173875,1.2339737932650796,-0.8819465496476352,-1.0612024976256487,3.2590271781715368,3.2592242669134457,0.27624760583014557,-0.04391853140813486,-0.16805493450819664,0.14848846775155874,3.2595885467038803,3.2592982243654993,55107432
0,0,0,0,0,0,0,0,0,0,0,0,0.38162792702054105,0.4306597507786454,-0.18061589963625663,-0.8915090908419001,3.258904046881681,3.258971710082496,0.985556219286468,-0.22974567767926188,-0.1880785212610389,0.09501250922829023,3.259156210321928,3.2591585706661426,55108661
0,0,0,0,0,0,0,0,0,0,0,0,0.47381274387988376,-0.09282683048568134,-0.40014325382033034,-0.8343010347248357,3.258918995728373,3.2584186027549027,0.6492929278961334,-0.15327131191150092,0.0354936761252494,0.1870399698066675,3.259235281853113,3.2592427562764588,55109889
0,0,0,0,0,0,0,0,0,0,0,0,0.14158918161263245,-0.025367012663723546,-0.3697494947611683,-0.567575844237309,3.25870499118626,3.2588112066759116,1.3643749433010748,-0.46190520070853236,0.0056054241186885975,-0.358369095131051,3.259582252452642,3.2592879962072363,55110924
0,0,0,0,0,0,0,0,0,0,0,0,0.10482052622086122,0.19036294106995355,-0.7523549976772067,-0.6770667048772222,3.2586503098786244,3.2588076661595897,0.9993422030618433,-0.013173474451717668,-0.18957261914880502,0.5981969831224659,3.2593143533842985,3.259323794761156,55111959
0,0,0,0,0,0,0,0,0,0,0,0,0.033777705881322125,-0.12815567590661953,-0.49897322642484027,-0.659154839414935,3.258728988019107,3.2583572338053264,1.1248582273552687,-0.22094592105697644,-0.08305146492141066,0.4883980975625631,3.2589142750399436,3.2591310333169736,55112993
0,0,0,0,0,0,0,0,0,0,0,0,0.28317560949034803,-0.5732752887338743,-0.5437686257086546,-0.7884297118699207,3.2585496018588067,3.2588973592397403,0.9472049530988875,-0.12686024032357218,-0.1459951574796626,0.7238353519243421,3.2595724176850815,3.259638507323087,55114028
0,0,0,0,0,0,0,0,0,0,0,0,0.47548150723952143,-0.10909983028171423,-0.44317940988295196,-0.7225489643274503,3.258657390911268,3.2587415765215844,1.0814231731204,-0.1464271004709125,-0.17999119520082416,0.8208938861958844,3.25944338553469,3.2594256829530814,55115063
0,0,0,0,0,0,0,0,0,0,0,0,0.4912352313083686,-0.37666215618397664,-0.8115429891995177,-0.5892603265357407,3.2589158486027534,3.2586396883296596,0.9819024064424522,-0.2679466686185203,-0.1698672854742152,0.4911396373676821,3.2590653370696705,3.2591900419223356,55116097
0,0,0,0,0,0,0,0,0,0,0,0,-0.16831299880897982,1.345553558534808,-2.1286555801219436,2.6382676647028522,3.2590873669490055,3.2589622687056385,0.8991444109850419,-0.2168743272869977,-0.20936646573143788,0.6385588691900812,3.259236068634518,3.259179026982668,55117132
0,0,0,0,0,0,0,0,0,0,0,0,0.026023188355349103,0.9173072597154688,-0.2615194513224901,-0.22551594084691295,3.25874905094493,3.258501608193112,0.811614586307357,-0.17316744007676124,-0.05264708431328347,0.07645548301404512,3.259416634966926,3.259294683849178,55118166
0,0,0,0,0,0,0,0,0,0,0,0,1.1217465068991788,0.4112710966194983,-0.13590429257205636,-0.287589059780724,3.258834416727354,3.2587514112891447,0.4731309977926013,-0.08701015555979676,-0.20645104723585214,0.23886290059839493,3.259008688808523,3.258978004333735,55119201
0,0,0,0,0,0,0,0,0,0,0,0,0.7007503987253186,0.6594683718047585,0.03563018269898685,-0.3296059405333925,3.2589898060548075,3.2586613248182923,1.3989697216713095,-0.12245662480075654,-0.2068519123616114,0.703383756087274,3.2591573904940354,3.2591884683595262,55120236
0,0,0,0,0,0,0,0,0,0,0,0,0.9211801911807288,0.33462167198916337,-0.15346604030919556,-0.030576292345081846,3.258549995249509,3.2589146684306463,-1.5220962908382762,-0.05048972970124837,-0.20462020690682017,0.3239238052277333,3.2593084525237623,3.259366674347719,55121270
0,0,0,0,0,0,0,0,0,0,0,0,0.8118907465804512,0.3334521214308883,0.1344994943737381,-0.03183710954631681,3.258583040068512,3.2588556598252842,0.10658212978626845,-0.10386340664188941,-0.10156364459558065,-0.11447787457440788,3.259353299063837,3.258912701477134,55122305
0,0,0,0,0,0,0,0,0,0,0,0,0.5782221768167229,0.48909518588723966,0.2800060606010032,-0.5119771494838177,3.25931789390062,3.2590507816136816,-0.021002342820446825,-0.053494054495579535,-0.19541879837737064,-0.08495940982811567,3.259523637237982,3.2591231655029254,55123340
0,0,0,0,0,0,0,0,0,0,0,0,0.44853935820333457,0.461747844427567,-0.0434822611191584,-0.2796287989173888,3.2589264701517187,3.258643228845981,0.16590426753810256,-0.24108595145773307,-0.20162099619162036,0.0657489616571619,3.2593470048125983,3.2593277286681803,55124374
0,0,0,0,0,0,0,0,0,0,0,0,0.9735955683702907,-0.014638854818207599,-0.05313292183076403,-0.6005061865456326,3.258769507261456,3.2588969658490377,0.1226784971569177,-0.0914550771063658,-0.1773428889921771,0.03749367445631915,3.259265179546497,3.2592183660529095,55125409
0,0,0,0,0,0,0,0,0,0,0,0,0.3708765591235827,0.4535759393663334,-0.5176211258913429,-0.42197289728795256,3.258944959514732,3.2591794203733704,0.2641677575311372,-0.17793730234352376,-0.2253880888686286,0.23744315355338494,3.2594142746227113,3.2590067218550107,55126443
0,0,0,0,0,0,0,0,0,0,0,0,2.532561222620156,-1.9030145410316635,0.15987555502361714,-0.521565654464442,3.2587722609963725,3.2586632917718044,0.42419162084956413,-0.1752118915572037,-0.2108582032749895,0.4396742987244485,3.259049601441574,3.258963842268448,55127288
0,0,0,0,0,0,0,0,0,0,0,0,0.26659065086730127,0.07217657234389453,-0.11684569321223416,-0.2892845737081258,3.2584441731505596,3.2584980676767907,0.5945604794693565,-0.257301909601916,-0.19195774697753748,0.4565196819924929,3.2589835118035686,3.258852119308963,55128133
0,0,0,0,0,0,0,0,0,0,0,0,0.4851801616168214,0.1205947066062339,0.1090667854627115,-0.657120222702053,3.25876203283811,3.2588973592397403,0.6413751532286588,0.08914784063671119,-0.19428111246599106,0.5245715528215829,3.2593383502171456,3.259201843643408,55128977
0,0,0,0,0,0,0,0,0,0,0,0,0.2541240995078205,0.1527103367698594,-0.5651151853937132,-0.7841818790652607,3.258936304919279,3.258848578792641,2.861945290797387,-0.5567284890089618,-0.19685821495750128,1.506091190110587,3.2592974375840944,3.2591837476710968,55129822
0,0,0,0,0,0,0,0,0,0,0,0,0.2900202143216389,0.06945037477616964,-0.6435207061196215,-0.4720708098495972,3.258933551184362,3.2585456679517826,1.3237306027091267,-0.2639722423520377,-0.1432595185350798,0.5120027198794745,3.259265572937199,3.258950466984566,55130666
0,0,0,0,0,0,0,0,0,0,0,0,0.3793663238723664,-0.37184272668871005,-0.5806293345247906,-0.30314176120063796,3.2588615606858204,3.2586621115996968,0.8512821377852127,-0.09205696488105831,-0.10996174931070199,0.48934970967170116,3.2594972800609208,3.2591337870518906,55131511
0,0,0,0,0,0,0,0,0,0,0,0,0.15328468719538296,-0.0911144007580758,-0.7248483329830566,-0.746752327293435,3.259087760339708,3.2591168712516865,1.0925616374685332,-0.07950072044142728,-0.17540976708051764,0.6163496036946301,3.2595952343458214,3.2592403959322445,55132355
0,0,0,0,0,0,0,0,0,0,0,0,0.08884138927953115,-0.26986130116716633,-0.44683007560134835,-0.5755770177336952,3.2589815448500565,3.258448893838989,0.904927254310519,-0.12376661583979319,-0.1508173407098461,0.4367738290755545,3.259180600545478,3.258940238826303,55133200
0,0,0,0,0,0,0,0,0,0,0,0,-0.10735907642353491,0.25731685844860774,-0.3263317497172057,-1.2126099243891149,3.2587207268143565,3.2585138033048873,0.4946384542749469,-0.0959861512167634,-0.18352659744341343,-0.15260018737318365,3.2589603017521265,3.2590413402368235,55134045
0,0,0,0,0,0,0,0,0,0,0,0,0.9310204662108977,-0.08828395465421135,-1.1284770284267696,-0.22723859873278124,3.2586263130457773,3.2589268635424213,0.6230545548265641,-0.10026860240323571,-0.06519074025043729,0.3091012369514986,3.2593108128679766,3.259294290458475,55134889
0,0,0,0,0,0,0,0,0,0,0,0,-0.8897238838343482,0.4843705635512547,0.19564775176617522,-1.6406374979779121,3.258757312149681,3.258710498656094,0.701709878648505,-0.17002228141096606,-0.12551091021429422,0.6690922819485999,3.2591038893585074,3.258872575625488,55135734
0,0,0,0,0,0,0,0,0,0,0,0,0.5719904746997923,0.08022180559895105,-0.15477249083191044,-0.5129122391834544,3.259048027878764,3.258871002062678,0.7755213827516296,-0.12170052787071797,-0.2028405073691019,0.14541333263079317,3.25922662725766,3.259149522679987,55136578
0,0,0,0,0,0,0,0,0,0,0,0,0.5053587443064146,-0.06601214003707648,-0.053241891055332544,-0.3800272202524209,3.25876203283811,3.2588843773465603,1.1348837894062744,-0.3896054970747825,0.04788508986056922,-0.16053330427805235,3.259675486049114,3.2592958640212846,55137423
0,0,0,0,0,0,0,0,0,0,0,0,0.8653501826942185,0.2104640257911713,-0.041386275456699775,-0.18611550165599602,3.258936304919279,3.2587136457817127,-0.2728699532592241,0.3982349155229229,-0.1810938693396889,-0.06542952840680222,3.2593084525237623,3.259111363781853,55138267
0,0,0,0,0,0,0,0,0,0,0,0,0.8548859900100219,0.35289978419539736,0.22658714372958466,-0.1281509552181906,3.259110577000448,3.259168405433703,0.15387359307689583,-0.23729012457014614,-0.20071895131098644,-0.24559066839106897,3.2592289876018743,3.2589138816492413,55139112
0,0,0,0,0,0,0,0,0,0,0,0,1.0115278734598008,0.3893332707087124,-0.049086505065739756,-0.26622401073265206,3.2588399241971877,3.258717579688737,0.05325959363694115,-0.22432986787913653,-0.18095972311016598,0.24841206650877792,3.259117658033092,3.2593029450539284,55139956
0,0,0,0,0,0,0,0,0,0,0,0,1.0728602377009675,0.5804865336998145,0.05745274513396563,-0.3220559861726744,3.2585350464028173,3.258642442064576,0.4805420852353674,-0.17015131356135768,-0.18932438961558218,0.2426304033554081,3.259315926947108,3.2595433067731028,55141180
0,0,0,0,0,0,0,0,0,0,0,0,0.617505778969023,0.649462872679576,-0.15744636743621437,-0.15587083767304868,3.2590519617857883,3.2589492868124585,0.009689999781846974,-0.2427004269004377,-0.19125436440162233,-0.05052906877148971,3.259156210321928,3.259021670701703,55142404
0,0,0,0,0,0,0,0,0,0,0,0,0.5565632649139481,0.28156192082904824,0.08493698655807812,-0.33114567174263854,3.258920962681885,3.2587997983455415,0.1894782053802258,0.014354826731065123,-0.10236576823780158,0.4055220848944288,3.2592997979283087,3.259431190422915,55143628
0,0,0,0,0,0,0,0,0,0,0,0,0.2634974197742247,0.591929875842318,0.5148571628161862,-2.2916660656530934,3.2586507032693266,3.258518523993316,0.7400434422544768,-0.1643118219747331,-0.1791088198553109,0.20670517762961121,3.259058256037027,3.2596031021598697,55144851
0,0,0,0,0,0,0,0,0,0,0,0,1.3366794510697664,0.9766762109608901,-0.32416495372831267,-0.43177698037349943,3.258808059550292,3.2587738345591823,0.7070238002567053,-0.11131934062473066,-0.1578849980694053,0.2904328811684705,3.25929665080269,3.259462268288406,55146075
0,0,0,0,0,0,0,0,0,0,0,0,0.2744403689432584,-0.04734378425404837,-0.15169971605535937,-0.7948632234171894,3.2590397666740136,3.2586762736649835,0.9602934551588839,-0.19948370450540834,-0.21565993018864751,0.753461999113798,3.2593946050875906,3.2591927956572526,55147299
0,0,0,0,0,0,0,0,0,0,0,0,-0.00907001603484345,0.4760082573900529,-0.22032042984013914,-0.45274431142143146,3.2588588069509035,3.2584272573503563,1.8301951682800255,-0.5147938269130977,0.8490122734322874,-1.402865076406607,3.2591853212339066,3.2592533778254245,55148523
0,0,0,0,0,0,0,0,0,0,0,0,0.5022285344873112,0.09582840154509562,-0.6027422192981504,-0.7849029642227845,3.2590027879479866,3.2587148259538203,0.3898450720125522,0.04790397261428506,-0.18576381036803843,0.4402856278759989,3.2590193103574885,3.2593041252260355,55149746
0,0,0,0,0,0,0,0,0,0,0,0,0.15149948018783094,-0.037153784889433966,-0.8757557601637553,-0.8000359177632234,3.2587423633029893,3.258810026503804,0.8950680965266343,-0.14302191055082206,-0.2002425551703638,0.26865752561778133,3.2593989323853174,3.2591593574475475,55150970
0,0,0,0,0,0,0,0,0,0,0,0,0.2723990645884352,-0.07782802317476548,-0.893527185145281,-0.7002767563196131,3.258755345196169,3.2585248182445543,0.5999259352595728,-0.1786898587572406,-0.11037362937612884,0.059885866628392535,3.259016163231869,3.2589547942822925,55152194
0,0,0,0,0,0,0,0,0,0,0,0,0.465182145259636,-0.0804495788156484,-0.5672985037921076,-0.5313602961731311,3.2587333153168334,3.258774621340587,0.6642767863603575,-0.15392945455663853,-0.1451560551114148,0.6835159520525874,3.2589776109430324,3.259081859479172,55153418
0,0,0,0,0,0,0,0,0,0,0,0,0.6493802606320692,-0.35531087581048915,-0.7180615565850206,-0.03160264868767842,3.2590468477066574,3.2588084529409946,0.9703296387588547,-0.12232090500842392,-0.1459451968604561,0.43274118098511466,3.259313566602893,3.2594087671528778,55154641
0,0,0,0,0,0,0,0,0,0,0,0,0.2761756153316039,0.01068921216597702,-0.25194392823504547,-0.7827090242754249,3.258935518137874,3.2587521980705496,0.9662069041975623,-0.09663917978276965,-0.16258326322832858,0.8214359785838101,3.259407980371473,3.259331269184502,55155865
0,0,0,0,0,0,0,0,0,0,0,0,2.6545182412288475,-0.5253040463094767,-0.656601733756272,-0.6063496120392813,3.258871395453381,3.258673913320769,1.1341713588442037,-0.14740034906868327,-0.12497707903111922,0.502617597891998,3.259138507740319,3.2588769029232143,55157089
0,0,0,0,0,0,0,0,0,0,0,0,0.8840386014030696,0.3487770496341049,-0.25774683448634556,-0.5176683327756325,3.258637327985445,3.258815533973638,0.5967807765937777,-0.19880510554374523,-0.16937633387760329,0.2544419591953706,3.25929665080269,3.2593033384446306,55158313
0,0,0,0,0,0,0,0,0,0,0,0,0.4138596074413785,0.7459171588322113,-0.25635187105558765,-0.5994227885511861,3.2587435434750964,3.2585248182445543,0.9256038696293675,-0.31834198455118945,0.23187903545844976,-0.33925778141710533,3.259414668013414,3.2595389794753764,55159536
0,0,0,0,0,0,0,0,0,0,0,0,0.5063249118715419,0.47485758958549373,-0.24562017269374997,-0.605647016244771,3.2589508603752684,3.258708531702582,-1.168223258045108,0.30200564885206804,-0.1581953833336095,1.5154287118230714,3.2590558956928124,3.2589307974494455,55160570
0,0,0,0,0,0,0,0,0,0,0,0,0.5048917895426499,0.21796795343970699,-0.11577488372026488,-0.7125879183516405,3.2588383506343783,3.258641261892469,-0.38314798869466643,-0.13100539815490225,-0.12319069185145995,-0.27142502920925965,3.259305698788845,3.25935211889173,55161604
0,0,0,0,0,0,0,0,0,0,0,0,0.7564871736153571,0.4941754334182064,-0.2575709888423668,-0.5911340464513357,3.258588547538346,3.25863654120404,-0.10886812315799273,-0.12885512457551057,-0.20313200987959024,-0.19585900257337124,3.2590558956928124,3.2594492863952262,55162638
0,0,0,0,0,0,0,0,0,0,0,0,0.68275513443412,0.4865102155816812,-0.21304545558040802,-0.4630853728157726,3.2590944479816493,3.2589937399618316,0.14050932413450767,-0.23956864351852458,-0.19631376222536115,0.40093947660201507,3.2594429921439874,3.259138901131022,55163672
0,0,0,0,0,0,0,0,0,0,0,0,0.5844129663006027,0.18792155837077595,-0.1681650839048724,-0.6100329291859781,3.2590409468461212,3.258981938240759,0.2026461723621097,-0.12117220415737678,-0.18370401665020186,0.28472242173223755,3.259458727772084,3.259258098513853,55164706
0,0,0,0,0,0,0,0,0,0,0,0,0.6642641978578803,0.29268464954908485,-0.6937425367525264,-0.5012973786946987,3.25859090788256,3.258502001583815,0.24262056858784775,-0.17679882965073937,-0.20389243410735536,0.4423458149845379,3.259176273247751,3.2592699002349255,55165739
0,0,0,0,0,0,0,0,0,0,0,0,0.6821158745426982,0.6462787683342419,-0.613931431046895,0.6852484447060161,3.2586711595858526,3.258789570187279,0.6962873812064386,-0.205561197466993,-0.19342194717192018,0.3718616094424259,3.2591566037126305,3.2590680908045875,55166773
0,0,0,0,0,0,0,0,0,0,0,0,0.30338094274770533,1.7651515561522908,-2.3253064781792734,0.46660307247675326,3.259104676139912,3.2587702940428604,0.46591227840331534,-0.06556052751070589,-0.1899825322607198,0.2914887418137481,3.2595161628146365,3.2591833542803945,55167807
0,0,0,0,0,0,0,0,0,0,0,0,0.9167010446430498,0.5556663341124456,-0.23222167876025185,-0.7121567621417954,3.258504361928029,3.2586853216511393,0.9332533518377961,-0.13610020114185822,-0.17870520099463474,0.4808139182107351,3.2591908287037406,3.2591349672239978,55168841
0,0,0,0,0,0,0,0,0,0,0,0,0.19133697644912914,0.2988593100141656,-0.6141588108728898,-0.2511225284484062,3.2587789486383136,3.258640475111064,0.6431064657099802,-0.07293935691587411,-0.044128208652521206,0.6094825755933017,3.258869035109166,3.259001214385177,55169875
0,0,0,0,0,0,0,0,0,0,0,0,0.20088535557810727,0.09412344624083593,-0.5590605090928684,-0.6854392391966866,3.2589823316314614,3.259324581542561,2.190884088383208,-0.17602621031119947,-0.11445387774156067,0.40647763091059097,3.2591983031270866,3.2591259192378423,55170908
0,0,0,0,0,0,0,0,0,0,0,0,0.6488716064538486,-0.11267221125033035,-0.5695805632568077,-0.6266784699771963,3.258979971287247,3.2590027879479866,1.2228876498803676,-0.18276932034126764,-0.09923791876291259,0.7283884559140749,3.2592167924900997,3.25906848419529,55171942
0,0,0,0,0,0,0,0,0,0,0,0,0.3190331720153298,0.16375281378660367,-0.4587502072751769,-0.6508259714634385,3.2589103411329194,3.258544487779675,0.9999621868088467,-0.07796138262288362,-0.08252510816158153,0.5666694720589486,3.259178633591966,3.2587423633029893,55172976
0,0,0,0,0,0,0,0,0,0,0,0,0.33998201370024844,-0.10872453555161184,-0.40721209135199676,-0.47970534321133407,3.258850939136855,3.25869200929308,0.9994480251607925,-0.10957386607812239,-0.15559231705573998,0.50934339873116,3.2595098685633976,3.2594477128324164,55174010
0,0,0,0,0,0,0,0,0,0,0,0,0.3411767412634779,0.05719232048896795,-0.5021317603745175,-0.9720027294162189,3.2589158486027534,3.258891458379204,0.9459201390648053,-0.13194796227788474,-0.16978585359881562,0.7882255420953681,3.2593355964822286,3.2593017648818208,55175044
0,0,0,0,0,0,0,0,0,0,0,0,-0.09475523170891186,0.2952896827804664,-0.5546863978727339,-0.2914069165476461,3.2588131736294237,3.2586876819953536,0.9899256098181736,-0.2001084089408408,-0.17915720691170775,0.8268148096579087,3.2591648649173814,3.2591794203733704,55176077
0,0,0,0,0,0,0,0,0,0,0,0,1.5571753331631817,-1.0669802268719941,1.901426029375318,-2.426749351829213,3.258981938240759,3.2587903569686834,0.7457145626204684,-0.14629885510192572,-0.12027684691868387,0.4161644835668186,3.259176666638454,3.259197122954979,55176928
0,0,0,0,0,0,0,0,0,0,0,0,0.6453299099600208,-0.2507535279695425,-0.012254120380177543,-0.6793924307098902,3.258642442064576,3.258771474214968,0.7434136204020524,-0.11903137195484302,-0.187769316168942,0.8430008701087082,3.2591518830242014,3.2593249749332633,55177778
0,0,0,0,0,0,0,0,0,0,0,0,0.756639415817191,0.3523053708440507,-0.058373672768315406,-0.34257760555477207,3.258883983955858,3.258611757589788,0.37947647326904216,-0.12141374604865861,-0.0432446531349007,-0.10690274320873537,3.25929665080269,3.259287209425832,55178628
0,0,0,0,0,0,0,0,0,0,0,0,0.8733560768790336,0.2900135266796978,0.14616746260731966,-0.3407369304581797,3.258835596899461,3.2585090826164578,0.4748284786735152,0.1414408733178226,-0.026515713514770688,1.488123463168557,3.2592443298392686,3.2589178155562655,55179478
0,0,0,0,0,0,0,0,0,0,0,0,0.5460998590111564,0.47907867182238956,-0.08895035850409966,-0.4595192860983951,3.2588863443000724,3.259038979892609,0.2580674479088125,-0.2621473028835419,-0.1904872525319162,0.1973491665541132,3.2593611668778855,3.2594343375485346,55180328
0,0,0,0,0,0,0,0,0,0,0,0,0.4903359401626516,0.18695853793126796,-0.4451384955809707,-0.5362949891442047,3.258998067259558,3.2587986181734343,0.09606600952935332,-0.10009433032206658,-0.19272918614497017,0.5367332263866933,3.2592388223694346,3.259317107119215,55181178
0,0,0,0,0,0,0,0,0,0,0,0,0.512766291232859,0.5456301505124748,-0.25040931110493075,-0.5446781450126343,3.259112150563258,3.259018523576083,0.22301594293307575,-0.22814851142746345,-0.17505610883904799,0.16110647453146867,3.259265179546497,3.258902079928169,55182028
0,0,0,0,0,0,0,0,0,0,0,0,0.5560176320097007,0.5479362068100222,-0.007018483521757545,-0.6401288914834131,3.2588607739044155,3.2586546371763507,0.1252819568254896,-0.13778233978537793,-0.1899994480609236,-0.01847795468306001,3.2596542429511834,3.259362740440695,55182878
0,0,0,0,0,0,0,0,0,0,0,0,0.8311723984685419,0.344061081893573,0.3390776084754,-0.28162801046705366,3.2584646294670856,3.2585047553187314,0.08081503877819046,-0.0815408446241432,-0.20002461672122676,0.31286913309921416,3.2591632913545716,3.2592384289787324,55183729
0,0,0,0,0,0,0,0,0,0,0,0,0.6543967788692449,0.26597066712029777,1.3525315228142167,-1.657567066856273,3.259021670701703,3.258911521305027,0.6735017983319518,-0.16908797849273424,-0.17334289233003763,-0.019663634260134014,3.2593399237799554,3.259259672076663,55184579
0,0,0,0,0,0,0,0,0,0,0,0,0.33992339848558883,1.1631127194300555,-0.4208462263162405,0.667268129261509,3.2588352035087587,3.258824581959794,0.28022635939435475,-0.12994953750962465,-0.20751949638360695,0.10733586637209253,3.2594323705950226,3.2594288300787007,55185429
0,0,0,0,0,0,0,0,0,0,0,0,-0.1851926070681342,1.0605372739478676,-0.4705047214632894,-0.6788023446562701,3.2586542437856485,3.258504361928029,0.594574248143941,-0.30327944794648265,-0.025815478064474828,0.29771100255382094,3.2592478703555905,3.2590649436789683,55186279
0,0,0,0,0,0,0,0,0,0,0,0,0.4636526422086527,0.10635947064870245,-0.336549286430989,-0.7389148043292527,3.2587718676056703,3.258883983955858,0.36240921764483663,0.10517418446233086,-0.18078545102899682,0.6150769847723228,3.259136147396105,3.2590932678095417,55187129
0,0,0,0,0,0,0,0,0,0,0,0,0.1649129229680208,0.14160058994300245,-0.5667394956039781,-0.6502980411407996,3.258965022440555,3.2587514112891447,1.4944712155426996,-0.5646285610948277,-0.07682290993009923,1.7156822819331026,3.25950042718654,3.2593942116968884,55187979
0,0,0,0,0,0,0,0,0,0,0,0,0.10918637623624518,0.21898919570317216,-0.3976652857858283,-0.6809396363424821,3.2588332365552466,3.2586951564186997,1.1099900257575541,-0.1702465141113417,-0.17645421939542524,0.6774962875242576,3.2592765878768666,3.25900160777588,55188829
0,0,0,0,0,0,0,0,0,0,0,0,0.27368191166900535,-0.3002999067664035,-0.709644175725481,-0.27263470561918085,3.2590673040231826,3.2591290663634616,1.0741163342137734,-0.208571029731158,-0.17258443505578458,0.8238376288220439,3.2591117571725556,3.2591802071547753,55189679
0,0,0,0,0,0,0,0,0,0,0,0,0.3357526702586019,0.04514000953912849,-0.5433709077085147,-0.5981702325547019,3.258715612735225,3.2589174221655632,1.2470135148779766,-0.19959188694857202,-0.16577484199700857,0.7694663130600825,3.2593230079797513,3.259246690183483,55190897
0,0,0,0,0,0,0,0,0,0,0,0,0.3502703607404662,0.22218195464395935,-0.6791851138097184,-0.6039530758801789,3.2589528273287804,3.258271868022903,1.232917932619802,-0.1520824852088076,-0.14486769972654578,0.9812851764303655,3.259120018377306,3.2591156910795798,55192114
0,0,0,0,0,0,0,0,0,0,0,0,0.5768209191347264,-0.049668329914609184,-0.6561328120389952,-0.25742346732896176,3.2589103411329194,3.258531899277198,1.1765277357730548,-0.12229651478487429,-0.15036376122996345,1.1554675645193533,3.2591184448144963,3.2589886258827,55193332
0,0,0,0,0,0,0,0,0,0,0,0,0.2869584544847553,0.23531569663473326,0.45423762252779276,0.27976884600744795,3.2587758015126944,3.258885557518668,1.3000103235257057,-0.10500699341380516,-0.1917531838122825,1.0422115614666416,3.2590724181023143,3.259302551663226,55194549
0,0,0,0,0,0,0,0,0,0,0,0,-0.03431075028309229,2.3571687647305444,-0.8323270001801252,-0.8339493434368781,3.2589032601002765,3.2587447236472036,0.8862435562900968,-0.20917370428725532,-0.14126384750173657,0.12522334161083,3.259326548496073,3.2595960211272264,55195767
0,0,0,0,0,0,0,0,0,0,0,0,1.0528728428927472,0.3086472640809136,0.06569192000531196,-0.1648287373577043,3.258833629945949,3.2590653370696705,0.6386603639913039,-0.2023471954282755,-0.17770205470348055,0.1506171048423177,3.259322221198347,3.259179026982668,55196984
0,0,0,0,0,0,0,0,0,0,0,0,1.057136804716206,0.6482394275950703,-0.12526189389966655,-0.32898910391200825,3.258755345196169,3.258790750359386,0.8243773608657551,-0.31506149948376405,-0.16106713546122733,-0.012003923893442618,3.2593658875663145,3.258955581063697,55198202
0,0,0,0,0,0,0,0,0,0,0,0,0.9341502826392987,0.46387451456481393,0.009568048664098818,-0.2415599872541412,3.2590318988599654,3.2589540075008876,-0.35238168864031894,0.015355219287302409,0.13336574236938267,-0.21913711060727958,3.2592659663279013,3.259109003437638,55199419
0,0,0,0,0,0,0,0,0,0,0,0,0.8602125001206994,0.3607691718064751,-0.19809542871659144,-0.1496698200309062,3.259084613214089,3.2589469264682442,0.44978601333928264,-0.1722791638707118,-0.18346483510313452,-0.07434454850489479,3.258939058654196,3.258940238826303,55200637
0,0,0,0,0,0,0,0,0,0,0,0,0.7609486175714275,0.29296159660358384,-0.2122106805098868,-0.1368177457830603,3.2583127806559538,3.258461875732168,-0.32409886409030725,-0.2770096036207203,-0.19490503012001872,0.07057901270139369,3.2592533778254245,3.2590936612002444,55201854
0,0,0,0,0,0,0,0,0,0,0,0,0.5366789384697602,0.514285959516282,-0.058868951662653886,-0.37833760718555537,3.2589587281893166,3.258847005229831,0.10355380815909006,-0.12418833067278036,-0.18642352657598574,-0.07925091734539476,3.259147555726475,3.2592368554159226,55203072
0,0,0,0,0,0,0,0,0,0,0,0,0.336299876725659,0.16518003525495947,0.1420360734505741,-1.0228213337446848,3.259031112078561,3.258814353801531,0.1671989163397451,-0.19482674537023847,-0.16056241519003095,-0.07243660359818978,3.2591943692200624,3.2592049907690273,55204289
0,0,0,0,0,0,0,0,0,0,0,0,0.7814733840791445,0.09157309431708983,-0.19507222116854442,-0.5974987146256822,3.2588037322525656,3.258460302169359,0.26505918086280594,-0.07235320476927813,-0.15947272294434583,-0.05307312644399719,3.259450073176631,3.2592124651923733,55205507
0,0,0,0,0,0,0,0,0,0,0,0,0.9679307422555378,0.8331428924969306,-0.4825432637385444,-0.37244461446340255,3.258940238826303,3.259049601441574,0.3499548613971306,-0.16044911866773587,-0.15858720047321326,0.13233899263608367,3.2596078228482988,3.2592459034020784,55206724
0,0,0,0,0,0,0,0,0,0,0,0,2.1726354804796553,0.5818838574747869,-0.8113317383923219,-0.6327956953997248,3.2589709233010913,3.259121591940116,0.5997036695127093,-0.05211836720923987,-0.16394360827727417,0.17529293004190089,3.2592199396157193,3.259391064571269,55207942
0,0,0,0,0,0,0,0,0,0,0,0,1.2881905064809924,-0.06670136054770476,-0.6428519419255188,-0.7917613377286598,3.258979971287247,3.258874542579,0.9815979220387842,-0.2017630102351916,-0.16969301339304607,1.0288571272918137,3.259193189047955,3.2592958640212846,55209159
0,0,0,0,0,0,0,0,0,0,0,0,0.6504597247194915,-0.0397403287578021,-0.3679576001116752,-0.7014380456731374,3.258898146021145,3.2585228512910422,0.5084582696507298,0.6225285914574373,0.023751357048911695,0.26680819592573596,3.2593839835386254,3.2591015290142926,55210204
0,0,0,0,0,0,0,0,0,0,0,0,0.2006446004682303,-0.06426233819274166,-0.6446477704820359,-0.5454177195331715,3.2586947630279974,3.2587038110141524,1.3859240991978763,-0.035746232956198803,-0.16117767824860552,1.0479247746377913,3.2592848490816175,3.2587911437500887,55211248
0,0,0,0,0,0,0,0,0,0,0,0,0.2998443603330088,0.04955267304809964,-0.7097204935217492,-0.9127498284280096,3.258700270497831,3.2587321351447267,1.462232847479921,-0.16194203638339474,-0.08432998470425423,1.0434558562583751,3.2588863443000724,3.259077925572148,55212292
0,0,0,0,0,0,0,0,0,0,0,0,0.22349312585510323,-0.025073543199723144,-0.3853073102602136,-0.842826598027539,3.2591672252615957,3.2587045977955578,1.1727079120526207,-0.16648412543345992,-0.1153441209011222,0.7764918776144835,3.2592270206483622,3.2593902777898642,55213337
0,0,0,0,0,0,0,0,0,0,0,0,0.20694199883246406,0.1669325908342112,-0.6611312343038599,-0.5534389559553808,3.2587793420290163,3.2585920880546673,0.9995467662270983,-0.1472634491042434,-0.17412101913941133,0.23260916860212905,3.259450073176631,3.2594252895623788,55214381
0,0,0,0,0,0,0,0,0,0,0,0,-0.09050267821582295,0.08421629479125675,-0.57018402459431,-0.3092951785677884,3.258645195799493,3.2583973596569726,0.3280756507010043,-0.12598101210367824,-0.18906475175198934,-0.12108526481214342,3.2591156910795798,3.259081859479172,55215425
0,0,0,0,0,0,0,0,0,0,0,0,-0.12349320930161586,0.1416308810270883,-0.5293252860695464,0.6269306334174434,3.2590767454000407,3.2588973592397403,0.3869800075268754,-0.14416667749484507,-0.1800777411553551,0.3415638377146527,3.2591593574475475,3.2592132519737778,55216470
0,0,0,0,0,0,0,0,0,0,0,0,-0.6424491098462474,0.7746531694714033,-1.38446579986403,0.9902765143247264,3.2589606951428287,3.2586172650596215,0.5971753474682984,-0.12502192557119438,-0.12319816627480581,0.17284249935656776,3.2593926381340785,3.2592073511132416,55217514
0,0,0,0,0,0,0,0,0,0,0,0,0.41049454337293423,0.25027752521962227,-0.0713689412318398,-0.6898550498312771,3.2583792636846614,3.2583261559398355,0.6844172101518167,-0.1763413162638326,-0.1606198502325833,0.5554302996909976,3.2591259192378423,3.2588957856769305,55218558
0,0,0,0,0,0,0,0,0,0,0,0,0.5466336901943315,0.3470638331250945,-0.40192610048366784,-0.20332241097955833,3.2587647865730265,3.2587242673306784,0.828264454396302,-0.16053763157577888,0.07060222275283606,-0.034273378166363014,3.2592215131785287,3.258677060446389,55219603
0,0,0,0,0,0,0,0,0,0,0,0,0.6119916214932944,0.4322112837089638,-0.009990550278490813,-0.644099777233574,3.2588277290854126,3.2591924022665504,0.504612088753234,-0.18216428544095578,-0.13003411651064353,-0.7116229309586204,3.2591290663634616,3.259294290458475,55220647
0,0,0,0,0,0,0,0,0,0,0,0,0.5032918695559346,0.7827538708155001,-0.2680131516472282,-0.19781808827139,3.2589488934217563,3.2586853216511393,0.3911959756846399,-0.04013214589740585,-0.1365333243052154,0.03783002350688261,3.2590913008560296,3.2589949201339383,55221691
0,0,0,0,0,0,0,0,0,0,0,0,0.6153680938921087,0.5316230811623431,-0.25237469105418814,-0.37078096518289627,3.258959121580019,3.258828515866818,0.2880780444238239,-0.21041288499985755,-0.11703412735869018,-0.30080698738181444,3.2597238731055107,3.2590657304603727,55222736
0,0,0,0,0,0,0,0,0,0,0,0,0.8129473940071337,0.7758235068110831,0.002874899253237158,-0.2716775860402091,3.2588076661595897,3.2588426779321047,-0.31162877221450475,-0.17862455590064,-0.19597741317479767,-0.17520166339894097,3.2591613244010595,3.2592175792715046,55223780
0,0,0,0,0,0,0,0,0,0,0,0,1.0744849413019348,0.761309750236243,-0.3271802934623114,-0.3998934507242978,3.259003574729392,3.2588289092575202,-0.3631019786717866,-0.06720726099100839,-0.1729341593902301,-0.14956006402493285,3.2592179726622073,3.259355659408052,55224824
0,0,0,0,0,0,0,0,0,0,0,0,0.6302555716342415,0.2691170059582002,-0.13238501934826605,-0.25512488545476025,3.2590732048837188,3.258674700102174,-0.207803131080047,-0.2157409686733447,-0.15732284275565658,0.13342042367701812,3.2593698214733386,3.259285635863022,55225868
0,0,0,0,0,0,0,0,0,0,0,0,-0.12071233042625551,1.108471931036941,0.9125055328018108,-1.0759825797060227,3.2585625837519863,3.258557469672855,0.11091139446632796,-0.05653693157874722,-0.1661721666064461,0.3104246032744173,3.2593182872913227,3.2591699789965123,55226900
0,0,0,0,0,0,0,0,0,0,0,0,2.2626523211779976,-0.8813694454871946,0.48805860138638035,-1.6483601508569896,3.2586652587253164,3.258504361928029,0.9664610345913213,-0.04795708035911087,-0.18542352741045084,0.6055026418569853,3.2592592786859607,3.2591054629213168,55227932
0,0,0,0,0,0,0,0,0,0,0,0,0.9151845234852461,0.4336723367777272,-0.4993984817741491,-0.8447247081666837,3.2589032601002765,3.259177060029156,1.4121345415275741,-0.24276415619422864,-0.1748767226787475,0.4534449402624297,3.2590614031626464,3.2590783189628505,55228964
0,0,0,0,0,0,0,0,0,0,0,0,-0.07772377463862593,0.4032888058768279,-0.37357207221651934,-0.8788914774526926,3.258525211635257,3.258658571083375,0.4598170828601221,0.18562927074781307,-0.19120086326609412,2.345591276358518,3.2596475553092423,3.2593993257760197,55229996
0,0,0,0,0,0,0,0,0,0,0,0,0.22982750294536386,0.39793633197979117,-0.9920652618486001,-1.1726685729823794,3.2587537716333594,3.2587978313920294,-0.04040397887277351,0.4232679394802975,-0.16700851523977697,0.6683436594419073,3.259472889837371,3.2594296168601056,55231028
0,0,0,0,0,0,0,0,0,0,0,0,-0.023428776672932704,0.18771542164271135,-0.9457269842299204,-0.9309681452474766,3.2590492080508717,3.258885557518668,1.2680713257874638,-0.14271270545872516,-0.0972985026000145,0.6575553128189221,3.25911254395396,3.2590968083258636,55232059
0,0,0,0,0,0,0,0,0,0,0,0,0.3684316359080834,0.02075686702214086,-0.7765296431219152,-0.46530016247036005,3.258601529431525,3.2589587281893166,0.9306927717557872,-0.0799090599905324,-0.11496646582680534,0.6073374160930414,3.2591758798570485,3.259187681578121,55233091
0,0,0,0,0,0,0,0,0,0,0,0,0.2840988974689123,0.03316795029258135,-0.5886281476769624,-0.37748945683115204,3.2588167141457456,3.258570844956737,0.6764360995812534,-0.19813516117753519,-0.1453795010303856,0.44629978493449507,3.259574778029296,3.2593678545198266,55234123
0,0,0,0,0,0,0,0,0,0,0,0,0.1406222272661003,0.3563443131857292,-0.7762932153097647,-0.5284031782630894,3.2586522768321364,3.2590492080508717,0.7870630725697365,-0.12629572466560895,-0.10630596951317424,0.4202781701419556,3.2589540075008876,3.2590547155207057,55235155
0,0,0,0,0,0,0,0,0,0,0,0,0.6091238032727008,0.037184469364222206,-0.2750422567179509,-0.1545423572709986,3.2589732836453056,3.258548815077402,0.6303216612722469,-0.1491851626855329,-0.195676075896749,0.5322611608816578,3.2590708445395045,3.2591204117680084,55236187
0,0,0,0,0,0,0,0,0,0,0,0,-0.5811718203034186,2.7704587424348284,-1.6525717917170275,0.6309680021963122,3.259077532181445,3.2587455104286085,0.9176691791616891,-0.15887280212316537,-0.0999247789293264,0.49903420198371434,3.2591270994099495,3.2593564461894564,55237218
0,0,0,0,0,0,0,0,0,0,0,0,0.32133726135936513,1.0047143464940007,0.12230438259892255,-0.3045524602594924,3.2587636064009198,3.258793504094303,0.5669401248622089,-0.05832449893051373,-0.1571182795904016,0.5254433066181309,3.259252197653317,3.259387130664245,55238250
0,0,0,0,0,0,0,0,0,0,0,0,0.8449764782162282,0.8602514458002384,0.007479537424986055,-0.32025897744404996,3.258640475111064,3.258913488258539,0.827001670241555,-0.21963514323653496,-0.20388377951190226,0.8554768628450468,3.2592392157601373,3.2589307974494455,55239282
0,0,0,0,0,0,0,0,0,0,0,0,0.5491478501734555,0.832359258217723,0.18067766197653554,-0.4029146913188328,3.2590385865019065,3.259193189047955,0.3180343530219022,-0.4214414264489921,-0.1740926950088376,0.1763326616683795,3.2592624258115794,3.2594304036415105,55240314
0,0,0,0,0,0,0,0,0,0,0,0,0.7367228313354053,0.46096893083678847,0.1596277188810967,-0.3410795737599818,3.2588493655740454,3.258684928260437,0.7001638531880203,-0.2247629910424937,-0.1747539847795945,-0.06433865598900985,3.2592832755188077,3.2592754077047594,55241346
0,0,0,0,0,0,0,0,0,0,0,0,0.7320517101349485,0.6368688627325132,0.022006275893005835,-0.44408892918693177,3.2588407109785926,3.2587223003771664,0.05974345919411888,-0.06485439119987382,-0.1481580195615315,0.07176705262268217,3.2590661238510754,3.2590692709766946,55242377
0,0,0,0,0,0,0,0,0,0,0,0,0.817157461304362,0.606033325914541,-0.06624660089571487,-0.15572921702017986,3.2585948417895843,3.2590082954178206,0.4443745308368839,-0.18745539038841608,-0.16776579234192276,0.03800940966718312,3.259338743607848,3.258963055487043,55243404
0,0,0,0,0,0,0,0,0,0,0,0,0.7176268598588537,0.5573240825324157,-0.3185512684048734,-0.6149837511758508,3.258758492321788,3.2587706874335627,-0.20862374408528137,-0.18199158692259632,-0.17846287232194807,0.14669657310206569,3.258999640822368,3.259077532181445,55244430
0,0,0,0,0,0,0,0,0,0,0,0,0.4579055974370953,0.2822782852981431,-0.34217556025690554,-0.6332905809033609,3.2590193103574885,3.2584677765927044,0.020129802242493895,-0.1694294416224291,-0.16765013547541324,0.06490789233540205,3.2592364620252203,3.259042127018228,55245457
0,0,0,0,0,0,0,0,0,0,0,0,0.46877104863775354,1.1244121222987322,-0.7259710700477445,-0.8393675135812179,3.258731741754024,3.2586798141813054,0.18979095098864449,-0.15182599447083406,-0.15892709004009842,0.23275865706904614,3.2594068001993657,3.2593147467750008,55246483
0,0,0,0,0,0,0,0,0,0,0,0,2.2377164647241194,-0.27008317352332756,0.5667953570837209,-0.5014850260597499,3.2588548730438793,3.2589146684306463,0.6344711464013035,-0.13624182179472705,-0.13937045805102086,0.4462073381194279,3.2589764307709252,3.2592868160351296,55247510
0,0,0,0,0,0,0,0,0,0,0,0,0.5843602519464793,0.4055122501268685,-0.18337592880438908,-0.6273665103157174,3.2589217494632896,3.258688075386056,0.5838055710560764,-0.10535199705982173,-0.1380423710396732,0.42646541910951363,3.2590987752793756,3.25904409397174,55248536
0,0,0,0,0,0,0,0,0,0,0,0,-0.10375089690099917,0.5572367497964799,-0.671681579551885,-0.3738572804757691,3.2591204117680084,3.2587596724938956,0.9131215826417902,-0.21390855478150303,-0.17727561918206444,1.505195832871894,3.259374148771065,3.259173519512834,55249563
0,0,0,0,0,0,0,0,0,0,0,0,0.34891080247292544,0.12180044910913099,-0.5326124587789128,-0.4982253906995524,3.2586211989666456,3.2585602234077715,1.0110534442726904,0.06997083067546256,0.028282431159309285,2.563959701533282,3.2591687988244056,3.259108610046936,55250589
0,0,0,0,0,0,0,0,0,0,0,0,0.39723885026441214,0.11118716134871974,-0.5003021002175928,-0.5107938302509583,3.2588108132852094,3.2585228512910422,1.2330709616030409,-0.1686788521622243,-0.07635988907335867,0.821438732318727,3.258978004333735,3.259051175004384,55251616
0,0,0,0,0,0,0,0,0,0,0,0,0.015492512642444686,-0.059454710418547434,-0.38040723567095225,-0.5470660265762837,3.2588568399973914,3.258686895213949,1.2941720121111882,-0.1706387246416479,-0.17611983729837383,0.7647818165757437,3.2592431496671614,3.2593336295287165,55252642
0,0,0,0,0,0,0,0,0,0,0,0,0.17706751550048772,-0.13829060057289608,-0.42502718270149026,-0.8013223053601152,3.2586416552831716,3.258868641718464,1.0990887760029764,-0.151301604664517,-0.17435626677945457,0.6877952561134405,3.259149129289285,3.259378476068792,55253669
0,0,0,0,0,0,0,0,0,0,0,0,0.41622073843726376,0.17570323654451805,-0.5363138718979206,-0.6589085768352242,3.25908972729322,3.2586428354552783,0.7769993516205967,-0.0808311677969894,-0.18526538434808068,0.7227063206084157,3.2593367766543357,3.2591432284287487,55254695
0,0,0,0,0,0,0,0,0,0,0,0,0.5833870033487085,-0.572620293214356,0.39810706354463854,-0.7682247720032658,3.258673913320769,3.258767540307944,1.0240825443366224,-0.09684098921310773,-0.18424060156829375,0.7847747188537977,3.259391064571269,3.2592887829886417,55255722
0,0,0,0,0,0,0,0,0,0,0,0,1.515898420321753,-0.11258173138877527,0.6124597564291664,-1.0057906634558038,3.2590397666740136,3.2585948417895843,1.0389035390500472,-0.11723396983551619,-0.15476029572013564,0.8259202392006205,3.259208531285349,3.259256918341746,55256748
0,0,0,0,0,0,0,0,0,0,0,0,2.045008128286377,0.4031460050518519,-0.3415016819836714,-0.11834844569545337,3.258758492321788,3.2590999554514832,0.529304829753021,-0.14739916889657603,-0.18507695020162462,0.3944465630586818,3.259499640405135,3.2589587281893166,55257775
0,0,0,0,0,0,0,0,0,0,0,0,0.5851604086351883,0.7421000888466941,-0.28704775417420314,-0.38573649951654665,3.2588532994810695,3.25887611614181,0.979429945877784,-0.1508326829472402,-0.17239796786284062,0.7193503045261269,3.259263605983687,3.2591739129035364,55258801
0,0,0,0,0,0,0,0,0,0,0,0,0.907696331464807,0.889365898295152,-0.13875362142963663,-0.31778612348867935,3.2588001917362437,3.2582714746322003,0.8811314441122345,-0.36317632951454276,0.05521159830231646,-0.1559676117858424,3.2588635276393325,3.2589776109430324,55259836
0,0,0,0,0,0,0,0,0,0,0,0,0.6790238236217289,0.7055702216112878,-0.1712347115558042,-0.09976112839712242,3.2587962578292196,3.258736069051751,1.4722285118375433,-0.5810640312509574,0.29574050852543216,-0.3923907032478694,3.259521276893768,3.2591223787215204,55260870
0,0,0,0,0,0,0,0,0,0,0,0,0.6894978510734857,0.7459100777995679,-0.21656826932052006,-0.32145881908641083,3.2585897277104525,3.2586562107391606,-0.1620958521480384,-0.03472853120905533,-0.0499271809967972,-0.38375538393919273,3.2593489717661104,3.2592820953467,55261904
0,0,0,0,0,0,0,0,0,0,0,0,0.6913467873748287,0.6688621483876881,0.010898889410363365,-0.5805534101192248,3.2589823316314614,3.2586656521160187,0.2579997847079974,-0.13779060099012863,-0.15223118689431986,-0.09540314619578674,3.2590051482922013,3.2591034959678047,55262939
0,0,0,0,0,0,0,0,0,0,0,0,0.5797335838953953,0.6312720932092778,-0.4014166595240425,-0.48619510962904805,3.2588993261932524,3.258902866709574,0.746926599374604,-0.15515919389238284,-0.18478662786324354,0.45903777587864114,3.2593375634357407,3.2593548726266466,55263973
0,0,0,0,0,0,0,0,0,0,0,0,0.41426873377188844,0.5507281006250501,-0.35601268482359466,-0.4566833325246969,3.2588178943178523,3.2588064859874826,0.6924533954207176,-0.17265445860081416,-0.17952817434408358,0.4637989835499505,3.2596160840530493,3.259233314899601,55265007
0,0,0,0,0,0,0,0,0,0,0,0,0.4715298976337788,0.7793530081931362,0.08102196228765991,-0.10265569718548025,3.259097988497971,3.2588592003416057,1.085666285236631,-0.08106602204633022,-0.15634566025086166,0.6861135108606232,3.2591963361735745,3.259315926947108,55266042
0,0,0,0,0,0,0,0,0,0,0,0,-0.40753349155586854,0.8760913224329141,-0.5695392572330543,0.7738876311645068,3.2591821741082874,3.25859090788256,0.8772758218378808,-0.2288448129707352,-0.18287238870529993,0.8266657145816939,3.259289176379344,3.258878476486024,55267076
0,0,0,0,0,0,0,0,0,0,0,0,-0.3532723251905829,0.36767317863383037,-0.24602772546145027,-0.6535820667245467,3.258786029670957,3.258786029670957,1.0097902667272407,-0.16215879466042454,-0.18633816079356202,0.34866414650251226,3.259126706019247,3.259208137894647,55268110
0,0,0,0,0,0,0,0,0,0,0,0,0.2125305071509489,0.05484063086994062,-0.6942401759910793,0.15884880529031817,3.2589331577936598,3.2590405534554185,0.521241107134951,-0.07436854533774201,-0.15533346597355197,0.0258528501812041,3.2590594362091343,3.259071631320909,55269145
0,0,0,0,0,0,0,0,0,0,0,0,0.3267302544987505,0.27842108946097965,-0.5505341590087603,-0.5538618509604752,3.2588776897046197,3.258760065884598,-0.49237881808028433,0.681551358884735,-0.16269931348554056,0.9845294695531689,3.259284455690915,3.2591027091863998,55270179
0,0,0,0,0,0,0,0,0,0,0,0,0.4157616514875473,0.054711598719549025,-0.4606841159682412,-0.5562572069474705,3.258883197174453,3.2587643931823242,0.6129613295747435,-0.03550665801842904,-0.07256956965560551,0.481927213898565,3.2593572329708613,3.259252197653317,55271213
0,0,0,0,0,0,0,0,0,0,0,0,0.09290314828194955,0.057780046198373576,-0.7179057738668648,-0.3590280245575934,3.2589878391012954,3.259103102577102,1.0369416996171117,-0.210226811197616,-0.049136465684946264,0.1899034607295347,3.2590964149351613,3.2589473198589465,55272248
0,0,0,0,0,0,0,0,0,0,0,0,0.13877879843459112,0.17901322591462443,-0.8305827058056242,-0.6541410749126761,3.258904833663086,3.258541340654056,0.49306135094897163,-0.08316279449019366,-0.11355852050286774,0.40477582273195056,3.2593969654318053,3.2593257617146683,55273282
0,0,0,0,0,0,0,0,0,0,0,0,0.2798581456968958,0.40754214615132167,-0.8829182246825963,-0.7627515271605881,3.2589158486027534,3.258837563852973,0.7410658646900492,-0.14957343930881492,-0.18453367764159173,0.7650662380535886,3.259560615964009,3.2594193887018426,55274316
0,0,0,0,0,0,0,0,0,0,0,0,0.4379894063460119,0.17264580400536106,-0.1857594830703119,-0.41133167878766996,3.258839137415783,3.2586778472277933,0.7578557798690533,-0.1480942902677405,-0.1340887944804185,0.7197952294105565,3.259127492800652,3.2590956281537564,55275350
0,0,0,0,0,0,0,0,0,0,0,0,0.4462875898227202,0.6872464760835738,0.3376688763700576,-1.5551261609943103,3.258700270497831,3.2585220645096378,1.2410363365455075,-0.17954312319077528,-0.15484290776764245,0.6762142272250923,3.2591034959678047,3.258765573354432,55276397
0,0,0,0,0,0,0,0,0,0,0,0,0.511453153068203,-0.08079222211745049,0.8747227161792178,-0.5447438412599375,3.258881230220941,3.2584040472989138,0.8968175049802667,-0.13355575007864834,-0.1918723811951138,0.7640965299721396,3.2592407893229467,3.2593033384446306,55277444
0,0,0,0,0,0,0,0,0,0,0,0,0.8298887646065669,0.7572896906482804,-0.04190279744896858,-0.35009215475227295,3.2588576267787963,3.2587447236472036,0.5633767918797483,-0.03514906586993526,-0.16085903177965066,0.6737366525812927,3.259060616381242,3.2592687200628183,55278491
0,0,0,0,0,0,0,0,0,0,0,0,0.5998921036591653,0.6702535713021244,-0.18975200530910555,-0.3648195224785235,3.258676667055686,3.2589642356591506,0.7749246090560685,0.12328235188512228,-0.19079016337277452,1.1063818462350186,3.259496493279516,3.258959121580019,55279537
0,0,0,0,0,0,0,0,0,0,0,0,0.7347122114553704,0.7184816978551981,-0.5200499200880432,-0.52917265047701,3.259033079032073,3.2587872098430646,0.6940721981611487,-0.26007570744463293,0.3987994311808861,-0.05829696158134479,3.2591648649173814,3.259294290458475,55280584
0,0,0,0,0,0,0,0,0,0,0,0,0.5660254914790978,0.7126524344268362,-0.5038170461436565,-0.621549048608428,3.2587561319775737,3.2586562107391606,0.3912467230852512,-0.3549517100991857,-0.10863877637848572,-0.03370610877348289,3.259126706019247,3.2592053841597295,55281631
0,0,0,0,0,0,0,0,0,0,0,0,0.5837284664784034,0.6913849462729628,-0.1173224827435592,-0.13585669229706432,3.259018916966786,3.258592874836072,-0.11079298386490152,0.06372417971184012,-0.2004923582663963,0.01822933175913474,3.259321041026239,3.259361560268588,55282677
0,0,0,0,0,0,0,0,0,0,0,0,0.7143837469081576,0.7173499128043548,-0.05180601499152362,-0.5984857318980373,3.2590720247116116,3.258549995249509,-0.06239215879346833,-0.25108948362940353,-0.18210409666348656,0.27503202855968817,3.259368247910529,3.259315926947108,55283724
0,0,0,0,0,0,0,0,0,0,0,0,0.4989858149273175,0.6520328941384427,0.37966726775971266,-0.8201881432757548,3.2584839056115036,3.2587407897401794,0.24076219090964684,-0.1587795685266934,-0.14297037636880594,0.5667158921618333,3.2591963361735745,3.25893001066804,55284771
0,0,0,0,0,0,0,0,0,0,0,0,0.8711408938337437,0.6144892590629171,0.27445689135275975,-0.5130192414545108,3.2590362261576917,3.258662504990399,0.6162374873444423,-0.19038143043296699,-0.1568130084053288,0.5417513181866787,3.2593670677384217,3.259040160064716,55285817
0,0,0,0,0,0,0,0,0,0,0,0,0.6602012586833547,1.763556750244707,-1.375033864382966,0.7776578876564368,3.258950466984566,3.2588828037837505,0.444594436239533,-0.25901984679935536,-0.16429529956523176,0.35216768409820604,3.259313173212191,3.2595141958611245,55286864
0,0,0,0,0,0,0,0,0,0,0,0,2.0255840689640126,0.308913196195745,0.06051411158014674,-0.3062971480246959,3.258607430292061,3.25869200929308,0.9439429573944756,-0.09486302076137314,-0.155762655229885,0.7100352060836799,3.259230167773982,3.2588887046442867,55287911
0,0,0,0,0,0,0,0,0,0,0,0,0.36157208223010084,0.7918813218928958,-0.10917890181289931,-0.2713738884179459,3.2589827250221637,3.2588741491882978,1.7396267938168994,-0.24814888812886335,-0.16192158006686927,0.6272831114868058,3.259470136102454,3.259185714624609,55288957
0,0,0,0,0,0,0,0,0,0,0,0,0.37030181530735673,0.4742112486614285,-0.24888570891448364,-0.8423384001658439,3.2587443302565013,3.258669979413745,1.4652993280052338,0.12588148425596765,-0.17952856773478598,2.9491206704521975,3.259216005708695,3.2593906711805665,55290004
0,0,0,0,0,0,0,0,0,0,0,0,0.3277648720460977,0.3623643711047615,-0.5079980025289061,-0.3871110066307791,3.2588776897046197,3.2585826466778096,1.2780921671500403,-0.22642231302527344,-0.17206673289140853,1.1027347210329437,3.2592573117324486,3.259246690183483,55291051
0,0,0,0,0,0,0,0,0,0,0,0,0.54844604116035,0.5042769198747777,-0.6308602131438509,-0.6089554320520677,3.2590566824742178,3.2588627408579276,1.4170837899546374,-0.114129723802772,-0.1791088198553109,0.8434977225658562,3.259384376929328,3.2593674611291243,55292097
0,0,0,0,0,0,0,0,0,0,0,0,0.5676930746666281,0.07268247278719815,-0.41701460087473396,-0.5634322599687887,3.2586577843019704,3.2585523555937232,1.1846032601121974,-0.10361399693655932,-0.1835698704206789,0.50767424198082,3.259224660304148,3.2591294597541642,55293119
0,0,0,0,0,0,0,0,0,0,0,0,0.3572314092196714,0.22383655593831012,-0.19098410498906432,-0.5443079643616633,3.25880609259678,3.2584819386579915,0.7355304641163902,-0.10913956274265797,-0.09650070625552014,0.340415530254308,3.2586628983811017,3.259018130185381,55294140
