0,0,0,0,0,0,0,0,0,0,0,0,-0.7775611135436431,-0.6304916060556895,-1.0913228501466334,-0.7671169837852696,3.258658571083375,3.2587958644385173,-0.5661116440429262,0.791476916250815,-0.12815842964153643,0.8071535357419891,3.2591451953822608,3.2590169500132737,75545323
0,0,0,0,0,0,0,0,0,0,0,0,0.7463546092932951,-0.2177984020469668,-0.35970701690995893,-0.03582333753387183,3.2587777684662065,3.258583433459214,1.7710091437112263,-0.10486301241672187,-0.12809548712915028,0.04033434871844634,3.2589567612358046,3.2590712379302067,75546380
0,0,0,0,0,0,0,0,0,0,0,0,1.2907278765115588,0.12715764369459673,-0.46618529155079025,-0.18650023776295635,3.258964629049853,3.258634574250528,1.048684805474854,-0.14491293965732333,-0.14260098249923972,1.7973710414613533,3.25905707586492,3.2593497585475157,75547437
0,0,0,0,0,0,0,0,0,0,0,0,0.8199548625892237,-0.23630192712568368,-0.2801429605654431,0.5071589001606585,3.258731741754024,3.258540553872651,0.9922466149624126,-0.12769422861268862,-0.13250185638688283,1.3863245709329333,3.2594457458789043,3.2594819378235265,75548493
0,0,0,0,0,0,0,0,0,0,0,0,1.9925408235240962,0.5099083077798255,-1.3207601095152033,0.035412244249849824,3.258986658929188,3.2587817023732306,0.9000743866055473,-0.13721979108092677,-0.14024732592670033,0.6059782512162031,3.259193582438657,3.2590492080508717,75549550
0,0,0,0,0,0,0,0,0,0,0,0,-0.13456007654190974,-0.6371989175318381,-0.480248615771367,-1.390439044289475,3.2590566824742178,3.2590173434039764,-0.5339499871671184,-0.21725945678466044,-0.1293020164134522,-0.4013576509186805,3.2593253683239656,3.2591813873268825,75550607
0,0,0,0,0,0,0,0,0,0,0,0,-0.8093667518337668,-0.046986585496257005,-0.8418124367967171,-1.0644043045525915,3.2586007426501205,3.258758492321788,-0.5417119791164373,-0.09683587513397636,-0.108887399302411,-0.13198336744110195,3.259476823744395,3.259494132935301,75551663
0,0,0,0,0,0,0,0,0,0,0,0,-0.2659014303566731,0.23982710121001016,-0.5108323825397947,-0.3149367946310991,3.259029538515751,3.2589776109430324,0.4706774199816489,-0.02506685555778212,-0.11563641019301535,1.880722270098003,3.2595193099402557,3.2588320563831394,75552720
0,0,0,0,0,0,0,0,0,0,0,0,0.4902663100083244,0.5163630624250247,-0.05324385800884461,-0.3537172500750125,3.2587006638885336,3.2588159273643402,1.6437323026337982,-0.2288247500449121,-0.11027960899825202,1.489120708599175,3.2588949988955256,3.2589878391012954,75553777
0,0,0,0,0,0,0,0,0,0,0,0,0.7952684158406752,0.24245927839985826,-0.5014417530824844,-0.7205359841032009,3.258839530806485,3.25839696626627,0.5933696858131511,-0.6716819729425875,-0.13145740407197523,-0.5931836120109096,3.2593064855702503,3.2592919301142604,75554833
0,0,0,0,0,0,0,0,0,0,0,0,-0.36280103478444037,-0.12768911453355725,-0.39203232431797075,-0.7764234276322636,3.258731741754024,3.258616478278217,0.7243884592519354,-0.2395930337420742,-0.13864583237717537,-0.07306366837783675,3.2592148255365876,3.2594457458789043,75555890
0,0,0,0,0,0,0,0,0,0,0,0,0.3347436231069115,0.46901573765465465,-0.5685620747282594,-0.3624265268357428,3.258957154626507,3.2590999554514832,1.0661021788242075,-0.09955577845046262,-0.11642161803503251,1.2715964998717904,3.259134573833295,3.259067697413885,75556947
0,0,0,0,0,0,0,0,0,0,0,0,0.4692305289781724,0.49553420490434225,-0.24093606960011357,-0.08666475852307778,3.2587333153168334,3.258734495488941,0.37633288816605664,-0.23641601042938357,-0.13844874363526624,-0.06030718807067729,3.259374148771065,3.2594638418512156,75558003
0,0,0,0,0,0,0,0,0,0,0,0,0.6374565884419189,0.3316460647161084,-0.017623116686715685,-0.5440518670143922,3.2590948413723515,3.2586306403435037,-0.4052978521940532,-0.09528237525014581,-0.12909666646679238,0.4854779583785484,3.259470136102454,3.2593155335564052,75559060
0,0,0,0,0,0,0,0,0,0,0,0,2.2007491470276292,-0.4700188839458089,0.5303941286080036,0.042052679306588084,3.2590594362091343,3.258911127914325,0.05151726621595218,-0.31009808899141417,-0.1270486744700282,0.387872217639949,3.2594280432972957,3.259025997999429,75560117
0,0,0,0,0,0,0,0,0,0,0,0,0.036780850503546056,0.5950982445595556,-0.6639648275333437,-0.9908229340103785,3.258789570187279,3.2588584135602012,0.2670210202957416,-0.19730864731176462,-0.13083663354356687,1.029046741610377,3.2594484996138213,3.259236068634518,75561173
0,0,0,0,0,0,0,0,0,0,0,0,0.5710372890278445,0.15088028322223224,-0.6927987924574366,-0.45015894772517057,3.258946533077542,3.2588454316670212,0.8469426449468904,-0.12147904890525923,-0.12299714362587257,0.8577730843750339,3.259259672076663,3.259341497342765,75562230
0,0,0,0,0,0,0,0,0,0,0,0,0.41201814556338134,0.1792736505596221,-0.2693522535982434,-0.7102673065981038,3.2586857150418416,3.2584512541832034,1.5200640344696084,-0.3052550560540027,-0.13549870675786813,1.6768270822557307,3.258834416727354,3.259060222990539,75563287
0,0,0,0,0,0,0,0,0,0,0,0,-0.35686476908502207,0.12791610096884976,-0.22638100700152003,-0.2679447016650082,3.2586569975205655,3.2587120722189034,2.750760489792882,-0.26160048980718725,-0.16965131397859023,1.7731389609740924,3.259345431249789,3.2590853999954934,75564344
0,0,0,0,0,0,0,0,0,0,0,0,-0.416562594957661,0.44213771130296126,-0.055089647184568304,0.1726493445216828,3.2590102623713326,3.258848578792641,-0.07499442994528173,0.18814107038272265,-0.14938382499025166,1.0224822309592045,3.2591243456750325,3.259246690183483,75565400
0,0,0,0,0,0,0,0,0,0,0,0,0.8879591331433215,0.3263994129180208,0.08899087774644825,-0.31655363041801815,3.259033472422775,3.258951647156673,-0.3317605414105107,-0.21972050901895868,-0.12134214894081938,-0.8187026999834417,3.2591282795820566,3.259289569770046,75566457
0,0,0,0,0,0,0,0,0,0,0,0,0.842692451798016,0.19275160941500777,-0.5398815321781077,-0.44853857142192977,3.258700270497831,3.258686895213949,-0.09631935314170754,-0.20538338486950217,-0.14828862527473274,-0.46102911961425774,3.259459514553489,3.259437878064856,75567514
0,0,0,0,0,0,0,0,0,0,0,0,0.6191639207796956,-0.11301760828704932,-0.5768626185491822,-0.6623546793883657,3.259311599649381,3.258811600066614,-0.8339513103903902,-0.11054357415957143,-0.1486096320879021,-0.2764305325067678,3.2595763515921057,3.259212071801671,75568570
0,0,0,0,0,0,0,0,0,0,0,0,1.2712577904770124,-1.5050848966938133,1.8007246971994275,-1.3761750908106674,3.2588942121141207,3.2586007426501205,0.6091454397613335,-0.13507935226909543,-0.10622532441917949,1.2201594853591307,3.258906800616598,3.259033079032073,75569627
0,0,0,0,0,0,0,0,0,0,0,0,-1.3307813442684822,3.007673335990111,-0.22754032940153232,0.6748365729852406,3.2585728119102493,3.258498854458195,1.4951568955370063,-0.16559545583670804,-0.1455962593074154,1.5661037285451564,3.259264786155794,3.258992559789724,75570684
0,0,0,0,0,0,0,0,0,0,0,0,0.9843469362672491,0.9538701717698779,0.8567412205626035,0.8886223898675907,3.258931977621552,3.2588721822347857,2.063195367240353,-0.19641132311955964,-0.13374418422510434,1.9124118581309149,3.2593599867057783,3.2593395303892527,75571740
0,0,0,0,0,0,0,0,0,0,0,0,1.033787492965161,1.029062083847771,0.9798685765109749,0.7731276003274441,3.258598382305906,3.2588088463316973,1.6002889871941788,-0.06007626772836062,-0.11476898369419379,1.1401005435109788,3.2589795778965445,3.2589347313564696,75572797
0,0,0,0,0,0,0,0,0,0,0,0,0.694384550378865,0.5973893520104112,0.014311553753799647,-0.15163087268243702,3.2587038110141524,3.2583647082286724,0.8874410375882431,-0.2478597459625895,-0.1314058698899591,0.1377658173758766,3.2589583347986144,3.259003574729392,75573854
0,0,0,0,0,0,0,0,0,0,0,0,1.2341826837280612,0.8379143283265028,0.7797353839558819,1.2272751363843841,3.258950466984566,3.2590244244366193,-1.8013521553697769,0.5713630165294429,-0.1377485081849704,-1.0856312734641163,3.2594925593724917,3.259586186359666,75574910
0,0,0,0,0,0,0,0,0,0,0,0,3.251013416172673,1.2120406880427228,1.264870305641926,1.2609269572409338,3.258934337965767,3.2587498377263353,1.4439047746544806,-0.7697700106823456,-0.14842355828566053,-1.0626442745499938,3.259461481507001,3.2594008993388295,75575967
0,0,0,0,0,0,0,0,0,0,0,0,3.239811222530749,1.4439315252222449,1.6204203629994824,1.5400931286922848,3.2588627408579276,3.258426470568951,-0.666680010161401,0.030624679401478696,-0.13245543628399803,0.06601450038129095,3.2590409468461212,3.2588879178628822,75577024
0,0,0,0,0,0,0,0,0,0,0,0,3.147993045806056,0.680428621820047,0.3820818998911261,0.7515556277699027,3.2589787911151396,3.2592443298392686,-0.011570407339383046,-0.2650847512584628,-0.12400737094967018,0.3190186165593405,3.2593001913190114,3.259248657136995,75578080
0,0,0,0,0,0,0,0,0,0,0,0,-0.4287289892112004,0.012770248981743929,0.08228435305170453,-1.7920468916948904,3.258731741754024,3.2588662813742495,0.3460048253541977,-0.26333337585131833,-0.11693459951097958,0.5006455303007996,3.259383196757221,3.2593363832636335,75579075
0,0,0,0,0,0,0,0,0,0,0,0,-3.125169697424137,0.2725477662739475,-1.980492446481281,-2.1319565215058947,3.258743936865799,3.2584933469883612,-0.03245355277699861,-0.22292624985292553,-0.1255132705585087,0.19640581564972587,3.2590519617857883,3.2588422845414025,75580070
0,0,0,0,0,0,0,0,0,0,0,0,-0.7973883983359811,-1.1229691652022797,-1.1402956652993756,-2.0730175462982112,3.2589142750399436,3.2588584135602012,0.5304311073340305,-0.3677892288910423,-0.1392984675524792,0.22120988621829582,3.2591117571725556,3.2589414189984103,75581065
0,0,0,0,0,0,0,0,0,0,0,0,-0.47387765334578197,-0.2907814253308088,-1.7496924817195512,-1.7834225873258813,3.258813567020126,3.2587152193445226,-0.13565527625742868,-0.18399119186296364,-0.1287182246110707,-0.20452894026386026,3.2595743846385936,3.2596235584763953,75582059
0,0,0,0,0,0,0,0,0,0,0,0,-0.40688203655267197,-0.517563297458088,-1.2394659208614731,-1.1200085067759162,3.2587435434750964,3.258292324339428,0.04554166144629257,-0.24051553493923364,-0.11968558069295653,0.008659709532226268,3.259476823744395,3.2592203330064216,75583054
0,0,0,0,0,0,0,0,0,0,0,0,-0.16251402646470384,-0.560861451728517,-1.2493227183011433,-1.2187873385891126,3.2588422845414025,3.2590433071903355,0.8130925551763242,-0.29512052477842865,-0.15916509141505852,0.5794735526410999,3.259265179546497,3.259293110286368,75584049
0,0,0,0,0,0,0,0,0,0,0,0,-0.14158288736139385,-0.41951892608629776,-0.9684334955732221,-0.06497201501989543,3.2588949988955256,3.2590027879479866,2.670640572385856,-0.520135285870467,-0.1282221589353274,1.3456161076564916,3.259491772591087,3.259418601920438,75585043
0,0,0,0,0,0,0,0,0,0,0,0,0.4929512015522959,0.0985309956706757,-0.6702091181527516,-0.1926060548551148,3.258929617277338,3.2583678553542916,0.7063747055977232,0.10408291865383608,-0.11684333286801968,0.9239591031025771,3.2592403959322445,3.259275014314057,75586038
0,0,0,0,0,0,0,0,0,0,0,0,0.45682298622405365,0.201063954957003,-0.5928598514628233,-0.00782572124310985,3.258714432563118,3.2585012148024095,1.1341682117185845,-0.052515298427974984,-0.1322630682305179,0.6623802497840225,3.2590594362091343,3.258745117037906,75587033
0,0,0,0,0,0,0,0,0,0,0,0,0.47242486148176926,0.1455285961066003,-0.3691365920468082,-0.17853250247627525,3.2588001917362437,3.258657390911268,0.5346785467479881,-0.11237756161422272,-0.1695187413118769,0.3676428875497445,3.259201843643408,3.258938271872791,75588027
0,0,0,0,0,0,0,0,0,0,0,0,0.27170551678008037,0.3751519292774116,-0.28217836405973007,-0.727043059711821,3.2589783977244373,3.258658571083375,0.8643096642863349,-0.18992195009254811,-0.12226976421711018,0.6165706892693865,3.2589532207194827,3.2593635272221,75589022
0,0,0,0,0,0,0,0,0,0,0,0,1.9765923710575546,-0.9277254256874831,1.457276911410917,-0.7791445111208571,3.258990986226914,3.258849758964748,1.1099817645528034,-0.01379542515223326,-0.16773982855556352,1.5431792787527179,3.2591353606147004,3.2588045190339705,75590017
0,0,0,0,0,0,0,0,0,0,0,0,0.25203952217573194,0.5362186713479365,0.12380320117511762,-0.5182595990013598,3.258560616798474,3.258922142853992,1.4784071062096482,-0.05067344315927543,-0.13648179012319922,1.165701623642638,3.2590031813386893,3.2592643927650915,75591011
0,0,0,0,0,0,0,0,0,0,0,0,0.7316213407065082,0.5766289444719487,-0.29410203624988035,-0.47772186728976573,3.2588824103930483,3.2588654945928446,1.0574853488785445,-0.07836028079513083,-0.1244334130803839,1.35843435030393,3.2592702936256277,3.2591208051587106,75592006
0,0,0,0,0,0,0,0,0,0,0,0,0.5652949649447161,0.3398935007922054,-0.1472134884850369,-0.2133609549237436,3.258966596003365,3.258962662096341,1.340775041672592,-0.03613490297018325,-0.12953844422560265,1.5510679425082137,3.2591927956572526,3.2592419694950543,75593001
0,0,0,0,0,0,0,0,0,0,0,0,0.11163051267033966,0.10641100483071861,-0.311102808845378,-0.8700689041696672,3.258730561581917,3.2588206480527697,1.75454652959663,-0.08362070126780285,-0.1259629161313672,2.4600868535145346,3.2595413398195907,3.259187681578121,75593995
0,0,0,0,0,0,0,0,0,0,0,0,0.1622457340056579,0.08714862908704628,-0.47918174018642185,-0.4785369728251663,3.2586876819953536,3.258649916487922,2.5109530581179924,-0.4862352354806942,-0.11833861092789304,2.123801532244865,3.2592537712161267,3.259014589669059,75595052
0,0,0,0,0,0,0,0,0,0,0,0,0.49036898498165427,0.15960293526684463,-0.006476784524534288,-0.3118628396824407,3.2587474773821206,3.2586160848875148,0.8904040563588209,-0.17001323342481056,-0.11184137008683324,0.7586162040968184,3.2589331577936598,3.2588922451606086,75596109
0,0,0,0,0,0,0,0,0,0,0,0,0.8709748829573253,0.4763827653387505,0.24718429412654566,-0.16009978772399278,3.258459908778656,3.258647162753005,-0.6132941381089853,-0.10055223709967578,-0.13271035345916193,-0.5144405620623305,3.2595417332102934,3.2594162415762233,75597165
0,0,0,0,0,0,0,0,0,0,0,0,1.2028774384114072,0.4399382638857679,0.06577885935054532,-0.21484285769973488,3.2587604592753,3.258809633113102,-0.7020788791273688,-0.22273152145523087,-0.1046643501120031,-0.299979686734639,3.2594846915584434,3.2592935036770703,75598222
0,0,0,0,0,0,0,0,0,0,0,0,1.1976583239624887,1.132905034173135,-1.5690576993295786,1.6762432904533493,3.2592726539698424,3.258972496863901,-0.9316514648975688,-0.13997077226290372,-0.12605457616502955,-0.9277753863066895,3.2594437789253923,3.258990592836212,75599279
0,0,0,0,0,0,0,0,0,0,0,0,-1.4436797551727003,1.5239723710980857,-0.23917446603470635,-0.07892204271817717,3.2588678549370593,3.2585287521515784,-0.6223551061576731,-0.09906325329104104,-0.13136181013128875,0.015408720422830632,3.2592219065692314,3.2592687200628183,75600335
0,0,0,0,0,0,0,0,0,0,0,0,0.995372890874492,0.25267681511364165,-0.06289137159483094,-0.20868235929994094,3.2585472415145924,3.2585661242683077,0.1898975598689985,-0.18904193509124936,-0.1477685627661422,0.6111340297620332,3.2594799708700144,3.25953307861484,75601392
0,0,0,0,0,0,0,0,0,0,0,0,0.39190604590249606,-0.01453263932855598,-0.8614209963585133,-1.037151376861498,3.259191222094443,3.2588300894296274,1.2700382792995308,-0.049339061896689164,-0.137554959959383,1.7370095654737432,3.2591479491171773,3.259117264642389,75602448
0,0,0,0,0,0,0,0,0,0,0,0,-0.48179031393412514,-0.5324578562328645,-0.5892351495307862,-1.1713597621154501,3.258854479653177,3.258775408121992,1.333860413296272,-0.03286031876329407,-0.13068714507664977,0.7752900690186105,3.2593497585475157,3.2590141962783568,75603505
0,0,0,0,0,0,0,0,0,0,0,0,0.011649085479865727,-0.3248050004011393,-1.043620293571984,-0.5549912756671043,3.258293897902238,3.2585570762821527,1.6703109586609552,-0.348268002065182,-0.130288640295105,0.7394553231543687,3.259254164606829,3.2592278074297676,75604562
0,0,0,0,0,0,0,0,0,0,0,0,0.8965991731404273,-0.024675825199583196,0.2116178407213498,0.3975909349430721,3.2590692709766946,3.2587462972100134,-1.4886746035426381,0.5486832557539053,-0.14275715860809784,-1.087558887905942,3.259112150563258,3.259048027878764,75605618
0,0,0,0,0,0,0,0,0,0,0,0,0.39544341509859743,0.43758224696901404,-0.1100557696885788,0.6856249196082258,3.2590621899440513,3.25888752447218,-0.5877013191820762,-0.15059546835368495,-0.15399121689691744,-0.07375446245127468,3.2594803642607166,3.258995313524641,75606675
0,0,0,0,0,0,0,0,0,0,0,0,-0.5921120157375355,0.22802459335620323,-0.37212478782234043,-0.6923290839587549,3.258791930531493,3.2589461396868393,0.4232982305643833,-0.12595898222434307,-0.13996093749534338,0.5185589693258964,3.259147162335773,3.259176273247751,75607732
0,0,0,0,0,0,0,0,0,0,0,0,-1.1399372863694772,0.31891908871162994,-1.4739861814959265,-0.5539924566736766,3.2587758015126944,3.2586031029943348,0.6629880384192512,-0.16858679873785956,-0.15019420983722326,0.1808645225601819,3.2591817807175847,3.259271080407033,75608788
0,0,0,0,0,0,0,0,0,0,0,0,0.963713593925666,-2.20366377874181,1.0906438577942679,-3.1081032285813364,3.2588930319420135,3.258953614110185,0.08251763373823567,-0.18396758842081884,-0.15075007089973338,-1.4209303642428355,3.259504361093564,3.2592695068442232,75609845
0,0,0,0,0,0,0,0,0,0,0,0,0.742375068947681,0.39524475279387866,-0.560377974555251,-0.19643138604538274,3.2589083741794074,3.2584811518765866,-0.07944210522676769,-0.2439624242737799,-0.11991610764457078,-0.10047513252200274,3.2593123864307865,3.2591778468105606,75610901
0,0,0,0,0,0,0,0,0,0,0,0,0.42140798823928693,0.18884012566091127,0.10161281843338232,0.14795109605206203,3.2587203334236543,3.2586306403435037,0.5377391264127643,-0.21535819951989643,-0.1229983237979798,1.0586517523112002,3.258821041443472,3.259018130185381,75611958
0,0,0,0,0,0,0,0,0,0,0,0,0.17376893446075134,0.45135052816278076,0.31944111817373255,0.21530627194717789,3.2586526702228387,3.258695943200104,1.2916771282764825,-0.17313242830424644,-0.11858684046111588,1.0180683872781262,3.2592431496671614,3.258953614110185,75613015
0,0,0,0,0,0,0,0,0,0,0,0,0.7219698932134977,0.6926520577254364,0.7261905820596911,0.5076864370925948,3.2589311908401477,3.2588623474672254,1.108182002089262,-0.11954277986798045,-0.12810650206881785,-0.2368251367598935,3.2593674611291243,3.259474070009478,75614072
0,0,0,0,0,0,0,0,0,0,0,0,1.5925824633339003,0.623427489212452,0.161257143170493,0.6137292282258544,3.2583761165590426,3.258826942304008,-0.40641350822609756,-0.8224552538937632,-0.13427998236179142,-0.8237542299931323,3.259356052798754,3.2590834330419813,75615128
0,0,0,0,0,0,0,0,0,0,0,0,0.86296898877251,0.16642314987458584,-0.36508466781195015,-0.45603384447501233,3.25913693417751,3.259088153730411,-1.046654122668996,-0.2867267473610338,-0.12829414943386905,0.11076151260870845,3.2590783189628505,3.2591829608896923,75616185
0,0,0,0,0,0,0,0,0,0,0,0,1.025236752657503,0.03302829659322459,-0.6071973690029823,-0.2419557383007691,3.2591097902190436,3.2589071940073007,-0.5400251197844886,-0.21542625611141397,-0.14241254835278372,-0.15097902428853802,3.2595193099402557,3.2595193099402557,75617242
0,0,0,0,0,0,0,0,0,0,0,0,1.9570471473988469,0.352670044025188,0.8290044223075417,0.25370749875396476,3.2589237164168017,3.2585515688123188,0.040952365511937795,-0.17681731901375283,-0.13210256482393323,0.3867042406444836,3.2594217490460573,3.259315140165703,75618298
0,0,0,0,0,0,0,0,0,0,0,0,1.4989633439735583,0.6360234661130268,1.7691425048282747,-0.570615180804155,3.2591778468105606,3.2591412614752366,-0.01326631465748723,-0.09180794856643062,-0.11954159969587322,-0.08832408050585752,3.259230167773982,3.259185714624609,75619355
0,0,0,0,0,0,0,0,0,0,0,0,-0.036370150610226464,2.656880945787542,-2.536678056320912,0.7603557777828905,3.2590433071903355,3.258394999312758,-0.035141591446589404,-0.17978269812854505,-0.12265607388688014,0.7152208823228934,3.2593194674634294,3.259166045089488,75620412
0,0,0,0,0,0,0,0,0,0,0,0,1.5433539442245894,-0.03696771108719243,0.023774567100354086,-0.4269717129435197,3.258415455629284,3.2585684846125225,0.7936260096580993,-0.10633075312742626,-0.13810728050557142,1.432770637604074,3.2591117571725556,3.2591062497027217,75621468
0,0,0,0,0,0,0,0,0,0,0,0,-0.08482841072421202,-0.1710529650512892,-0.7141264693887793,-0.7974674698671662,3.258859987123011,3.258758098931086,1.2133439914398183,-0.1973342177074215,-0.15840899448501997,1.4983307717240777,3.2591668318708935,3.25915817727544,75622525
0,0,0,0,0,0,0,0,0,0,0,0,-0.5060739286034022,-0.1979888198362374,-1.1017697336399237,-0.9581683585844467,3.2591019224049953,3.258782489154635,0.9789480422673276,-0.17760252685576997,-0.15607382727549401,0.8744839280228529,3.259371001645446,3.2593580197522662,75623582
0,0,0,0,0,0,0,0,0,0,0,0,0.08652589160512585,-0.14137635724262682,-0.5612469746168821,-0.2067779549095577,3.258586187194131,3.2588359902901636,1.4236805586434076,-0.2687424980095026,-0.13056204683328232,-1.1452264243634254,3.259054322130003,3.259147162335773,75624638
0,0,0,0,0,0,0,0,0,0,0,0,0.6888279067072757,-0.14318005361319228,-0.35150560754604426,-0.5896753537267868,3.2588253687411983,3.258717579688737,-0.07357389611886693,0.06912189353965444,0.027109340084712514,1.6028125885501607,3.259422535827462,3.2593989323853174,75625695
0,0,0,0,0,0,0,0,0,0,0,0,0.3761574359127803,0.4422966411467362,0.17523470821794368,0.26642778711650217,3.2590130161062496,3.259109003437638,0.9856628281668219,-0.25583298871910437,-0.1527398410725404,1.3064127572074837,3.2592785548303786,3.2590842198233867,75626752
0,0,0,0,0,0,0,0,0,0,0,0,0.9146998661398728,0.3803088879953489,-0.33824834087471256,0.04880287036929969,3.2587348888796432,3.2588367770715685,2.3709252442032387,-0.0975357171935698,-0.13938225977209326,2.417385079548964,3.259275014314057,3.2592049907690273,75627808
0,0,0,0,0,0,0,0,0,0,0,0,-0.11467417653491217,-0.31314883388863013,-1.476461789186214,-0.4057679540834372,3.258504361928029,3.25852403146315,1.6018133761660307,-0.09856522066178568,-0.15195699357473774,0.5507399023461225,3.259121985330818,3.258986658929188,75628803
0,0,0,0,0,0,0,0,0,0,0,0,-0.7836389998959302,1.9289901291120206,-1.31762832613329,0.40158345718186583,3.2587958644385173,3.2590047549014987,0.8568741866200192,-0.19806395746039837,-0.14389523791017983,1.6226681974730726,3.2591463755543675,3.259134180442593,75629798
0,0,0,0,0,0,0,0,0,0,0,0,1.9798079466590817,0.32073970088239917,0.9921915402640747,0.5510605157685894,3.258721513595761,3.259136147396105,2.0990427016070727,-0.19566624112918868,-0.12208723093119035,1.303120470418986,3.2588871310814773,3.2590405534554185,75630792
0,0,0,0,0,0,0,0,0,0,0,0,1.8802659368832035,1.2875123009100318,0.7300576126644149,0.5909692157470245,3.2584422061970475,3.2586428354552783,1.353497690379344,-0.13306125796571466,-0.11856481058178074,1.2192704223716764,3.2592982243654993,3.2591208051587106,75631787
0,0,0,0,0,0,0,0,0,0,0,0,1.684310553587741,0.18406121540799325,-0.41788163398285316,-0.7446551614588691,3.258815533973638,3.258846611839129,2.088170562764473,-0.2588656376440093,-0.11988857029540184,1.5607626629784896,3.259479577479312,3.2592584919045553,75632782
0,0,0,0,0,0,0,0,0,0,0,0,-0.2183129570857235,-0.30253554612821887,-0.8565818973281261,-1.183046219712045,3.2590944479816493,3.258763999791622,1.173009642721372,-0.12277173075338968,-0.10889880763278098,1.1829376438781791,3.259014589669059,3.259147162335773,75633776
0,0,0,0,0,0,0,0,0,0,0,0,-0.3620850637060479,-0.3102460038955216,-0.8306779063556082,-0.9040031795505499,3.2586247394829675,3.2583965728755677,0.22156275767836064,0.30222555425471714,-0.11660965879078612,-0.904039371495172,3.2593898843991616,3.2592899631607484,75634771
0,0,0,0,0,0,0,0,0,0,0,0,-1.0506922782292698,-0.606087613831474,-0.8025953176731249,-0.6153798956131811,3.258610970808383,3.258774621340587,0.15452426129868763,-0.05769350024384263,-0.11496685921750774,-1.6312850274187358,3.259450073176631,3.259170372387215,75635765
0,0,0,0,0,0,0,0,0,0,0,0,-0.2893841015558364,0.5339901130187646,0.051533001844048715,0.4138655083019147,3.258704204404855,3.2587738345591823,-2.2641452388936565,-0.17934603444886618,-0.12400933790318225,-0.9270527275863562,3.258971710082496,3.2589567612358046,75636760
0,0,0,0,0,0,0,0,0,0,0,0,-0.561581750104636,0.6667055805570579,-0.4816498734533636,-0.39177307984508036,3.258611757589788,3.2582840631346777,-1.650946694725358,-0.21884875522241057,-0.12285945688002788,-0.8847632270769151,3.2589366983099817,3.2588989328025497,75637755
0,0,0,0,0,0,0,0,0,0,0,0,1.4479515848102074,0.9028611663414439,-0.46905035603646705,0.3256216794993495,3.2586318205156113,3.2586333940784207,-0.7559025950315708,-0.2954694623314693,-0.1142292516504826,-0.17335626761391967,3.259496493279516,3.2594772171350974,75638749
0,0,0,0,0,0,0,0,0,0,0,0,1.5797040319089926,1.2440748863309485,-1.1206162954111452,2.393448042088514,3.2590869735583032,3.25880609259678,0.0006459475333628098,-0.22869257076890118,-0.10998259901792991,0.4123891129957572,3.2591117571725556,3.258957548017209,75639744
0,0,0,0,0,0,0,0,0,0,0,0,0.03732412306357897,0.48136112467779213,0.10488346873324736,-0.879146788018559,3.2587207268143565,3.2587797354197185,0.5563901730048862,-0.15473944601290773,-0.12009903432119301,0.21046795969819543,3.2590090821992255,3.2593017648818208,75640739
0,0,0,0,0,0,0,0,0,0,0,0,-0.13971034761790604,0.6413039495115219,-0.5357320470490511,-0.9230649260359913,3.258725447502785,3.2586562107391606,0.014780475471076424,-0.15321899094807992,-0.1383468554433412,0.27815397717404095,3.259289176379344,3.2593942116968884,75641733
0,0,0,0,0,0,0,0,0,0,0,0,-0.047537725870338186,-0.17068514474453267,-0.8751810163475294,-0.4137691275798234,3.2589567612358046,3.2590141962783568,0.21522326650896864,-0.20481611547662204,-0.14625872925027958,0.7813522197428011,3.2589846919756758,3.2589764307709252,75642728
0,0,0,0,0,0,0,0,0,0,0,0,0.44163259764106244,-0.21379093096148144,-0.8670755943150036,-0.6306265390666173,3.2590787123535527,3.258989019273402,0.17601558876223428,-0.0890396581935475,-0.1508787096594226,0.22964536305014646,3.259186501406014,3.2588320563831394,75643722
0,0,0,0,0,0,0,0,0,0,0,0,1.2724415031005742,-0.17204312944926373,-0.4879197344684284,-0.11501170575758288,3.2584095547687477,3.2582521984877824,2.9715077485451395,-0.7731795279001626,-0.15237752823561765,0.9341313998855828,3.2593922447433763,3.259096021544459,75644779
0,0,0,0,0,0,0,0,0,0,0,0,0.5011998178005002,-0.25701906168688077,-0.877724287238632,-0.6263905079830299,3.2588930319420135,3.2586133311525973,-0.5319236316589869,0.09416789939020864,-0.11596843194585227,0.3239104299438512,3.259241576104352,3.2592049907690273,75645836
0,0,0,0,0,0,0,0,0,0,0,0,0.313628377154872,-0.25351159018416286,-0.5607804132438199,-0.6458979661343056,3.259195942782872,3.258971710082496,0.7946224683073125,-0.14574220725801076,-0.13375637933687917,0.6164719482030806,3.259126706019247,3.2590936612002444,75646893
0,0,0,0,0,0,0,0,0,0,0,0,0.31664568384238284,0.02588078092107545,-0.524491694508993,-0.5994656681377492,3.258583040068512,3.258373756214828,0.762225170400759,-0.13248572736808387,-0.13100500476419982,0.8841180663249572,3.2592820953467,3.259167618652298,75647949
0,0,0,0,0,0,0,0,0,0,0,0,-0.1504947603338671,0.0021266701372468634,-0.1797724699702823,0.7380745217888977,3.2587813089825284,3.2586778472277933,1.2175446173601885,-0.21168707748497456,-0.12711948479646262,0.9031444076471815,3.2593450378590862,3.2595059346563735,75649006
0,0,0,0,0,0,0,0,0,0,0,0,-1.348284870181664,2.1991681097946296,-0.08103101027381542,0.5938531629864171,3.2590558956928124,3.2585228512910422,0.6439766459437186,-0.1494377195164823,-0.11091218124773278,-0.1480769810768343,3.259168012043,3.25907989252566,75650063
0,0,0,0,0,0,0,0,0,0,0,0,0.38138402478504474,0.5564987488387524,-0.11135435239724545,-0.5263453514987649,3.258868641718464,3.258491773425552,-0.06293975865122779,-0.14271231206802273,-0.1469514902772296,-0.2569997855424625,3.259236068634518,3.259186501406014,75651120
0,0,0,0,0,0,0,0,0,0,0,0,-0.5934877030238751,-0.047701376402542156,-0.9412942577951261,-0.6954297894751774,3.2587903569686834,3.2586876819953536,0.42586707185114286,-0.14545424526384415,-0.12108605159354824,-0.27552337354700246,3.2593611668778855,3.2594579409906794,75652176
0,0,0,0,0,0,0,0,0,0,0,0,0.15941804163671033,0.018357183737419094,-0.7011005164504666,-0.6574966976042624,3.2587120722189034,3.2585476349052946,0.46787883852467993,-0.2632944301717794,-0.1171667000254035,0.6341584007928849,3.2589272569331236,3.259292323504963,75653233
0,0,0,0,0,0,0,0,0,0,0,0,0.5623779728863206,-0.09996529817167499,-0.45026122930779805,-0.4441589527319613,3.258708531702582,3.2582742283671173,0.9500444471889076,-0.23468273099455011,-0.123708394015836,1.3331047097569357,3.259432763985725,3.2589071940073007,75654290
0,0,0,0,0,0,0,0,0,0,0,0,1.283359668655356,0.3978710291231905,0.24213905836809377,0.23084481130180493,3.2583926389685436,3.258541340654056,1.8206086302529132,-0.6203496003567696,-0.11928314200438761,1.0055255181223772,3.259139687912427,3.259438664846261,75655347
0,0,0,0,0,0,0,0,0,0,0,0,1.0775655838925342,0.7306044257407696,0.19309503949821466,0.5417233874468073,3.2588568399973914,3.2586888621674612,1.5435828976133938,-0.23204740667908272,-0.0958099121820822,0.8529505077541479,3.259020097138893,3.259121591940116,75656403
0,0,0,0,0,0,0,0,0,0,0,0,0.21718195881628496,1.2119006409526634,-0.25477240738539786,0.3042546634977655,3.258978004333735,3.2587152193445226,0.12532522980275507,-0.15614581777403566,-0.11432169846554975,-0.7292720114316954,3.2593961786504004,3.2592238735227435,75657460
0,0,0,0,0,0,0,0,0,0,0,0,0.3252235681085071,0.1884420142700689,-0.4779213163758893,0.10204908872235878,3.258715612735225,3.2583670685728867,-0.4234551934546463,-0.1425624302104032,-0.1263555200523758,-0.2232806948758,3.259495706498111,3.258979971287247,75658517
0,0,0,0,0,0,0,0,0,0,0,0,0.15097351681870422,-0.3443455033714179,-0.008706523025813463,-1.0242745189994,3.258719546642249,3.259024817827322,0.03233238844065529,-0.12646409588624188,-0.12717652644831257,0.6250156074780949,3.259120018377306,3.2593013714911185,75659574
0,0,0,0,0,0,0,0,0,0,0,0,1.740866367920204,-0.6946618908240665,-0.3948415273239049,-0.526124659314711,3.2587427566936915,3.25904409397174,-0.19641683058939344,-0.06585950444454007,-0.12690272651943282,0.1861670358380122,3.2592813085652956,3.2590842198233867,75660630
0,0,0,0,0,0,0,0,0,0,0,0,0.30608825756171437,0.3240669994434117,-0.15533818666198096,0.4778300497329294,3.2585157702583993,3.2584850857836107,0.4481428203753019,-0.14888107167256734,-0.13623277380857154,1.0793767546864457,3.259275014314057,3.2590118359341425,75661625
0,0,0,0,0,0,0,0,0,0,0,0,-0.1525431457213337,-0.11095742117851032,-0.3822380759999843,-0.44241819887378203,3.258752984851954,3.2585826466778096,0.8642569499322116,-0.014389051722175087,-0.12070800312852897,0.16301717317309058,3.2590861867768988,3.259118051423794,75662620
0,0,0,0,0,0,0,0,0,0,0,0,-0.1064869292362844,-0.39476520952763666,-0.24550215548302595,-0.17113793744301048,3.258721513595761,3.2587663601358363,-0.13321035304192938,-0.051943701737368314,-0.13779807541347447,-0.5757941694014275,3.2591589640568452,3.259345431249789,75663614
0,0,0,0,0,0,0,0,0,0,0,0,0.5863708718265142,-0.2609958482975779,-0.31254143864410383,-0.04544134681717715,3.2586924026837827,3.258586973975536,0.6636764721484747,-0.6753428668192466,-0.1356360001130104,-1.5465474899467813,3.259448106223119,3.2591023157956975,75664609
0,0,0,0,0,0,0,0,0,0,0,0,0.9027848485451756,0.14097588550756998,-0.3383478687224231,-0.2044168239136724,3.2590649436789683,3.2586455891901958,0.4063517458858187,-0.0029354814214088225,-0.13179178616902662,0.5859766943426961,3.2593359898729313,3.2591404746938313,75665603
0,0,0,0,0,0,0,0,0,0,0,0,1.2739588110397828,0.2554911321987071,0.09176231524495068,0.7658160407323885,3.258795077657113,3.2588186810992577,1.2880583272049817,-0.1672528108659757,-0.121155288357173,0.7470572050878054,3.259059042818432,3.2592490505276976,75666598
0,0,0,0,0,0,0,0,0,0,0,0,1.6606170249720842,0.37470228370455305,0.7804387665317972,1.0471352394980478,3.258841104369295,3.258723480549273,-0.08010182143471496,-0.1755116552724427,-0.15385116980685828,0.34191828273752717,3.259199089908491,3.259170372387215,75667592
0,0,0,0,0,0,0,0,0,0,0,0,2.4980942962282056,1.0023827198007964,0.1003091216455843,-0.2805103874814972,3.2589512537659706,3.258668405850935,1.1747909158218997,-0.12293420111348642,-0.13790350412172128,1.7948120349421541,3.2595645498710333,3.2589634488777453,75668587
0,0,0,0,0,0,0,0,0,0,0,0,1.2903781521771134,0.12169620057299144,-2.3517553152746333,1.441870551332301,3.2586211989666456,3.2588312696017345,2.063966806407786,-0.059286732588616914,-0.1371521278801117,2.095542311136998,3.259223086741338,3.259151489633499,75669582
0,0,0,0,0,0,0,0,0,0,0,0,1.3105067742475,-0.27758277387413666,0.031374875470981056,-0.1879904017436983,3.258870608671976,3.258679027399901,0.6238216666962703,-0.1847142439739995,-0.1153409737755029,-0.23036841516118228,3.2591483425078795,3.259261639030175,75670576
0,0,0,0,0,0,0,0,0,0,0,0,0.6812437273554476,-0.035957483763394804,-0.25884478793678134,-0.24508162082214602,3.2588879178628822,3.2586294601713965,-0.5357556504911959,-0.09835515002669692,-0.13633505539119903,-0.12173829337814966,3.259515769423934,3.2590271781715368,75671571
0,0,0,0,0,0,0,0,0,0,0,0,-0.22376023814204193,0.27315712847198587,-0.5596269917043437,-0.37333800474858336,3.2589606951428287,3.258668405850935,0.5516521753850192,0.003662467439468794,-0.16850497347175758,1.0699778640243844,3.2593029450539284,3.2590657304603727,75672565
0,0,0,0,0,0,0,0,0,0,0,0,-0.09611754371136948,0.20945419185807607,-0.34249066620953866,-0.32949343079250226,3.258852512699665,3.258673519930067,1.378425285628472,-0.19832398871469364,-0.12415489246307522,0.5028198007130386,3.259197909736384,3.259147555726475,75673560
0,0,0,0,0,0,0,0,0,0,0,0,-0.49836386422680184,-0.16946720712986074,-0.8590665530045691,-1.156443566852041,3.259020490529595,3.2588556598252842,-1.3243482261119157,0.3317436256103069,-0.1220648076611528,0.28753988594292235,3.259621591522883,3.259149522679987,75674554
0,0,0,0,0,0,0,0,0,0,0,0,0.4059973008629442,-0.05010302664077599,-0.6832637886123405,-0.6277614745809406,3.258835596899461,3.258457941825144,0.5177918574561902,-0.4189894222008493,-0.14773001047730572,0.7805237389235185,3.2594658088047277,3.2592089246760514,75675549
0,0,0,0,0,0,0,0,0,0,0,0,1.049964505429805,0.04961954946750992,-0.9307151950258249,-0.14561632223323848,3.2588757227511076,3.2587997983455415,0.10651564675756058,-0.043940954678172425,-0.09613170577665636,-0.0953579062650092,3.259109003437638,3.2593733619896605,75676543
0,0,0,0,0,0,0,0,0,0,0,0,0.8885633812622287,0.33657525021734835,-0.5000353813213564,0.08673674902161944,3.2586381147668497,3.258898146021145,-0.47470220025804044,-0.16211748863667114,-0.10549676483830986,-0.6177178165576239,3.2595865797503683,3.2589957069153437,75677600
0,0,0,0,0,0,0,0,0,0,0,0,0.9590330313483513,0.6584974835512022,-0.12397511291207229,-0.7186575434991769,3.2586428354552783,3.258587367366238,-0.6290211116100682,-0.09526388588713239,-0.12557149238246587,-0.5111616505577148,3.2594835113863363,3.2590153764504644,75678657
0,0,0,0,0,0,0,0,0,0,0,0,1.3469005282998714,1.2492098151695508,0.14940703504169403,-0.6191332363049072,3.258703024232748,3.258769507261456,-0.8256842047791725,-0.2557586378763482,-0.1251820355870766,-0.11759313554681963,3.2590452741438476,3.2593072723516547,75679714
0,0,0,0,0,0,0,0,0,0,0,0,1.3905810583330462,0.42373056694633565,-0.3460567529269162,-0.4098816406585742,3.258848972183343,3.2587018440606403,-0.21863081677327356,-0.10296726262179166,-0.10679102024924995,0.10195703529799405,3.258986658929188,3.2590932678095417,75680770
0,0,0,0,0,0,0,0,0,0,0,0,0.3221055534011785,0.2329010645033198,-0.3914457787806724,-0.5785227273133667,3.258852512699665,3.258865101202142,0.5794239854125959,-0.13049871093019377,-0.09481974778410765,1.5638519601645422,3.259638507323087,3.2593772958966847,75681827
0,0,0,0,0,0,0,0,0,0,0,0,-0.16146406667996246,0.1990958212728287,-0.47980172393342535,-0.308549703186715,3.258970136519687,3.2584260771782487,1.0983350394171523,-0.16796327447453432,-0.13978076455363803,0.5218363072677025,3.259444565706797,3.2591837476710968,75682884
0,0,0,0,0,0,0,0,0,0,0,0,0.08563289471064742,0.42979114410771657,-0.20025278332862653,-0.07228554156846304,3.258728594628405,3.2586133311525973,0.6057378894970284,-0.11461713488306223,-0.09944995635151342,-0.4946797602987003,3.25922820082047,3.2590621899440513,75683941
0,0,0,0,0,0,0,0,0,0,0,0,-0.5940970652219134,-0.2805036998395562,-0.9252746016114475,-0.8212471510466517,3.258847005229831,3.258550388640211,1.8987981794831965,-0.572209986711739,-0.14178863069875605,1.2862920029511455,3.259005541682904,3.259097988497971,75684997
0,0,0,0,0,0,0,0,0,0,0,0,-0.4942718141402977,-0.6010321499147594,-1.2568168111821187,-0.9880715594376992,3.2585716317381417,3.2585330794493053,1.8573257514626682,-0.11958487267313869,-0.12184293530499164,1.5596804451561503,3.2594787906979072,3.258933551184362,75686054
0,0,0,0,0,0,0,0,0,0,0,0,0.44074786195133464,-0.500244271784338,-1.16593175720355,-1.1067225225833084,3.2586522768321364,3.258409161378045,1.390213631416992,-0.0920797815417983,-0.11939171783825371,0.4631624773934457,3.2590747784465286,3.258727807847,75687111
0,0,0,0,0,0,0,0,0,0,0,0,1.6504761994452712,-0.04128281370196506,-0.2080403456736023,1.0801088547836368,3.2585621903612836,3.258939452044898,0.04824622252538473,-0.17234800724363414,-0.125786677096686,-0.2903774130794302,3.2587942908757075,3.2590669106324803,75688168
0,0,0,0,0,0,0,0,0,0,0,0,3.126427367499753,-1.2952125305190716,0.6932051650530295,-0.7605729294506227,3.2587966512199222,3.258605069947847,0.09067931064120657,-0.14977446195774816,-0.10503728449789101,0.14797824001052856,3.2595059346563735,3.2593965720411027,75689224
0,0,0,0,0,0,0,0,0,0,0,0,-0.23915164937396638,0.630598608326746,-0.6798589920829524,-0.8134320513525071,3.259393031524781,3.258869035109166,0.45396854328734193,-0.23628776506039678,-0.09022376420781185,0.07395076441177897,3.2592049907690273,3.2591278861913544,75690281
0,0,0,0,0,0,0,0,0,0,0,0,-0.23236329941312067,0.1519117536439602,-0.3154965896006333,-0.5545046513682188,3.2588261555226032,3.258507902444351,1.0187855385286257,-0.16944871776684733,-0.11097591054152375,1.4018835666040856,3.2588658879835473,3.2587077449211765,75691338
0,0,0,0,0,0,0,0,0,0,0,0,0.012304867780788872,0.37142101185572285,-0.5512489499150455,-0.32775543066923984,3.258640475111064,3.258732921926131,1.211104418170979,-0.3611263705642665,-0.12000776767823311,0.1398405599404049,3.2592443298392686,3.2593021582725235,75692395
0,0,0,0,0,0,0,0,0,0,0,0,0.6130404011059285,0.27846554261035233,0.14060295112168206,-0.2531980577943394,3.258909554351515,3.2588851641279653,0.1656528908792604,-0.0873606666756471,-0.10650699216210747,0.4518438401036072,3.259263212592985,3.259167618652298,75693451
0,0,0,0,0,0,0,0,0,0,0,0,1.050901955473656,0.4945027344826143,0.17148805516815843,0.04125684991560577,3.2588501523554507,3.2585916946639646,0.41668926676383816,0.3904068339355986,-0.09676427802613712,0.442940621726587,3.259081859479172,3.2590110491527375,75694508
0,0,0,0,0,0,0,0,0,0,0,0,0.8753049344187896,0.9277447018319012,0.7076249012499929,0.5562485523520174,3.258637327985445,3.2581837485055622,1.6005675078114876,-0.41172467609938096,-0.11330242315559663,-0.967959459776814,3.2591861080153115,3.2591231655029254,75695565
0,0,0,0,0,0,0,0,0,0,0,0,1.8674154361981672,0.7370583936045638,0.6779624555066175,0.5815420009543897,3.258634574250528,3.2585948417895843,-0.5846175294658577,-0.15097391020940665,-0.1150482910929073,0.315223183062456,3.25943197720432,3.2593792628501967,75696622
0,0,0,0,0,0,0,0,0,0,0,0,1.7849068504460872,1.125345638435559,0.1952158087749253,0.2047862177832386,3.2590197037481907,3.2584189961456054,-0.4649040180330298,-0.1329003611684276,-0.12141492622076586,0.11355655354935568,3.2593084525237623,3.2590385865019065,75697678
0,0,0,0,0,0,0,0,0,0,0,0,2.2603002381682678,0.404869449719125,0.3321594395827579,1.4804377890155063,3.2588446448856168,3.2586916159023778,-0.2021009328485647,-0.2109286202107215,-0.14569106646669702,-0.24920042147641436,3.259199876689896,3.2591522764149037,75698735
0,0,0,0,0,0,0,0,0,0,0,0,0.46855979783055757,0.36539347951334467,-1.1110836519102636,0.7215690280877385,3.258406407643128,3.258375329777637,-0.5071793564771838,-0.19669417103459488,-0.11983310220636155,0.0989444492989122,3.259313566602893,3.2591522764149037,75699792
0,0,0,0,0,0,0,0,0,0,0,0,0.6887594567250557,-0.27212683822236516,-0.18534484926996816,-1.003765881510482,3.2586160848875148,3.258776588294099,0.2856968505021156,-0.16971504327238118,-0.1212611104561222,1.0341454785043571,3.2593662809570167,3.2594563674278696,75700849
0,0,0,0,0,0,0,0,0,0,0,0,0.7369277878913626,-0.39520698728644693,-1.167492338120024,-1.1171489497600733,3.258951647156673,3.258824975350496,0.4311892546640938,-0.1810895420419624,-0.16666193803095078,0.25662055690533603,3.2589803646779494,3.2587773750755042,75701905
0,0,0,0,0,0,0,0,0,0,0,0,-0.6482012686969362,-0.7443951302045738,-1.1246953636044699,-1.23744743316739,3.2584056208617236,3.258189255975396,0.2927892914759268,-0.11354868573530741,-0.13285551462835246,0.9664291699444258,3.2590122293248447,3.259162111182464,75702962
0,0,0,0,0,0,0,0,0,0,0,0,-0.4988748787492369,-0.41406653095084794,-0.840559880800233,-0.1706867183073423,3.2586042831664424,3.258424503615439,0.6725667086323152,-0.1028799298858559,-0.1258244426041177,0.697651266771706,3.2591778468105606,3.259359593315076,75704019
0,0,0,0,0,0,0,0,0,0,0,0,0.42652482110557804,0.5610030723813858,0.4292793428038767,0.9463591630886987,3.2589772175523297,3.258963842268448,0.7890217648770529,-0.43556375927493085,-0.12939367644711453,-2.1584470580157107,3.2591459821636652,3.25887611614181,75705076
0,0,0,0,0,0,0,0,0,0,0,0,1.9698087417851378,1.1505411327530304,1.7090241442947558,2.1269970449205693,3.2590385865019065,3.2586542437856485,0.5735730854956014,-0.0954401249218136,-0.14419539501612127,0.562953110093249,3.2591522764149037,3.2589347313564696,75706132
0,0,0,0,0,0,0,0,0,0,0,0,2.579523811283566,2.1185359976930616,1.553663140972035,2.2330323616304826,3.2587077449211765,3.25851104956997,0.5845250826507905,-0.11009589554022498,-0.12863246543794457,0.5265172632357196,3.2593072723516547,3.2596133303181327,75707189
0,0,0,0,0,0,0,0,0,0,0,0,2.3866140588061877,0.600334274808678,-0.2526626530483547,-0.35806343055527573,3.2588595937323084,3.258938271872791,0.45943706744159074,-0.28517010035158397,-0.10733035890225874,0.2529191437863283,3.2592431496671614,3.259077532181445,75708246
0,0,0,0,0,0,0,0,0,0,0,0,0.5966352220338847,-1.5447142892735348,0.6614132954374903,-3.175293573772141,3.2590177367946787,3.2588454316670212,0.21681099138390914,-0.02784498069822558,-0.1253905326593557,0.5367753191918515,3.259172339340727,3.2590252112180247,75709303
0,0,0,0,0,0,0,0,0,0,0,0,-1.3554961151476044,-0.6022123220219996,-2.6083683977566237,-1.3633210496093093,3.2589272569331236,3.2584858725650157,0.8741495459258015,-0.1704632723883715,-0.15556399292516623,1.2385933802835203,3.2592136453644804,3.2594410251904753,75710359
0,0,0,0,0,0,0,0,0,0,0,0,-1.1289176260134726,-0.9976734397022056,-1.7861472113307966,-2.0115832938651197,3.258664471943911,3.2584221432712246,1.7903970110889684,-0.16535273377331897,-0.11746489017783285,1.3545330947080962,3.2592758010954617,3.2593296956216924,75711354
0,0,0,0,0,0,0,0,0,0,0,0,-0.9432041696553433,-0.8819138982193349,-1.25451704913581,-1.4356585187504909,3.2590079020271183,3.258804125643268,1.2766476364907784,-0.2984946368330284,-0.14052191263698488,0.5806135988966941,3.2590661238510754,3.2588501523554507,75712348
0,0,0,0,0,0,0,0,0,0,0,0,-0.597347259205253,-0.36342967312689695,-0.8486141620414449,-1.0265034707192742,3.258557469672855,3.258614511324705,0.8324587860654337,-0.26206469083603506,-0.12564977713224615,-0.11598377418324639,3.259232134727494,3.2593957852596978,75713343
0,0,0,0,0,0,0,0,0,0,0,0,-0.39254963309164437,-0.054451174074551356,-0.5685860715611066,-0.6499011099220645,3.258789570187279,3.2584512541832034,0.8057227737573115,-0.504014528276268,-0.13270484598932816,0.4351263088138471,3.2591927956572526,3.259373755380363,75714337
0,0,0,0,0,0,0,0,0,0,0,0,-0.6129782453749472,0.6129880801425075,-0.2904254067451247,-0.2978077766666146,3.25904566753455,3.2592451166206735,-0.2076355466408189,0.41673962077374704,-0.0963681335888068,1.926114836468081,3.2593953918689955,3.2589205692911825,75715332
0,0,0,0,0,0,0,0,0,0,0,0,0.07693187915466775,0.27292817508318123,-0.22994394659327824,-0.21324569144793645,3.259136147396105,3.258653457004244,-0.5536777441117459,-0.030832389692352972,-0.13693733655659396,-0.4975908514965595,3.2595094751726954,3.25881750092715,75716326
0,0,0,0,0,0,0,0,0,0,0,0,0.8459941799633717,0.11646095710527385,-0.49574230858591894,-0.3729894605862451,3.2587341020982388,3.2583662817914822,0.006695116364373727,-0.3010725261059435,-0.13443379812643505,-0.1487099467170175,3.259206170941135,3.2594732832280733,75717321
0,0,0,0,0,0,0,0,0,0,0,0,0.9534118716015663,0.03531192962073441,-0.028359142346279897,-0.4946443551354831,3.2588721822347857,3.258789963577981,-0.09420251777202102,-0.2707574451872641,-0.12402310657776672,0.3669033130292073,3.2591310333169736,3.259414668013414,75718315
0,0,0,0,0,0,0,0,0,0,0,0,0.25252890020953417,1.8938080184230826,-2.4430766395421792,2.948136013524057,3.258937485091386,3.258867068155654,0.03282334003726721,-0.33063977129933486,-0.1311977662083824,0.7529836360196633,3.259170372387215,3.2588021586897558,75719309
0,0,0,0,0,0,0,0,0,0,0,0,0.5258186013482333,-0.19699157440561943,-0.3468801196670675,-0.1870297416484048,3.2585641573147957,3.2584536145274177,1.3156763214679148,-0.16791134690181575,-0.1358264012129785,1.1177897832143047,3.2591353606147004,3.258915061821349,75720304
0,0,0,0,0,0,0,0,0,0,0,0,0.4890589939426176,-0.31337896744954197,-0.4048922663798649,-0.9723465528901282,3.258677060446389,3.258538586919139,0.7477979597804497,-0.1706690157257337,-0.13053726321903028,0.6271733554808325,3.2590995620607806,3.259582252452642,75721298
0,0,0,0,0,0,0,0,0,0,0,0,0.015424456050927168,-0.0785211775924179,-0.7110977543708985,-0.7263404639173107,3.2587793420290163,3.2588123868480188,1.8363835974196907,-0.10497355520410002,-0.14940152757186026,1.2772223803070044,3.2589846919756758,3.2588851641279653,75722293
0,0,0,0,0,0,0,0,0,0,0,0,0.19782674286684307,-0.024723818865277632,-0.30503515065135367,-0.060043222909357895,3.2587073515304743,3.25871639951663,1.8431294611846758,-0.1739258973510143,-0.15485352931660762,0.37602407646466207,3.2594492863952262,3.2590212773110006,75723287
0,0,0,0,0,0,0,0,0,0,0,0,0.6997515797318912,0.30248715907182205,-0.05255739123313322,0.012249793082450996,3.258929617277338,3.2583910654057338,0.057533783618662786,0.11261123569145627,-0.1565573044487601,-0.8488958297843731,3.259049601441574,3.259405620027258,75724282
0,0,0,0,0,0,0,0,0,0,0,0,0.5355569881864771,-0.1983141539471333,-0.7265379460499222,-0.6176619550778811,3.258730954972619,3.2588595937323084,2.6849430781535,-0.2711767996760368,-0.11580006072521933,0.48667071898826586,3.259134573833295,3.25934071056136,75725276
0,0,0,0,0,0,0,0,0,0,0,0,0.30493050872451166,-0.09993146657126743,0.12554316825189213,-0.11642909245837836,3.2587423633029893,3.2588584135602012,-0.019928386202858233,-0.05615062190897726,-0.14374299570834587,0.23350137871520263,3.2590889405118153,3.2589563678451023,75726270
0,0,0,0,0,0,0,0,0,0,0,0,0.09199677610358906,0.36423415711333235,0.0036593203138494865,-0.01816245533972446,3.2587077449211765,3.2585968087430963,0.7674816569664069,-0.1301564610190941,-0.1133342878024921,0.6836984853385073,3.2591149042981744,3.259202630424813,75727327
0,0,0,0,0,0,0,0,0,0,0,0,1.2848757964224573,0.6964793558692164,-1.0865038140420693,2.2705830777386518,3.258909554351515,3.2587199400329516,0.5832288602863384,-0.16817295171892066,-0.13431420735290137,1.6645190673493226,3.2591318200983785,3.259166438480191,75728384
0,0,0,0,0,0,0,0,0,0,0,0,1.449411064316161,-1.7806723929253092,2.5085431466750077,-1.152316504993022,3.258894605504823,3.2589103411329194,1.5512752594083856,-0.13832325200119638,-0.13106716049518113,0.6309963263268858,3.259151096242797,3.259271080407033,75729440
0,0,0,0,0,0,0,0,0,0,0,0,0.7014789583061883,0.12515331806580043,-0.47913846720915637,0.14916273941549532,3.2584260771782487,3.2587352822703455,0.3271393808292604,-0.20180903694737398,-0.1377949282878552,0.43991151331800377,3.2593879174456495,3.2589736770360083,75730497
0,0,0,0,0,0,0,0,0,0,0,0,1.1066521056475764,-0.06878672466119821,-0.46174823781826946,-0.30265435012034775,3.259086580167601,3.258893425332716,0.5525416317631759,-0.13547313636221125,-0.13686377249524265,0.06440238528280082,3.2593623470499926,3.2593949984782933,75731554
0,0,0,0,0,0,0,0,0,0,0,0,1.1417575051495439,-0.005668366631074742,-0.17197113895072208,-0.3829532602969718,3.2587073515304743,3.258789963577981,-0.351315993227481,-0.16749828666428165,-0.11139683859310609,-0.9421860745174973,3.2593363832636335,3.2594233226088667,75732610
0,0,0,0,0,0,0,0,0,0,0,0,1.5214479829606988,0.7374443098836314,0.4195944571011611,0.5987343548219627,3.258653457004244,3.258666832288126,-0.010854042870288237,-0.05531978074548014,-0.1327567735620467,-0.7100898873913154,3.259117658033092,3.2591487358985822,75733667
0,0,0,0,0,0,0,0,0,0,0,0,1.64881333694617,1.3582227061060317,1.080331907311905,1.228735796062445,3.2590397666740136,3.258503968537327,-0.9674917182316444,0.08011283637438253,-0.15403212952996845,1.4315971531387748,3.2593053053981427,3.2590354393762873,75734723
0,0,0,0,0,0,0,0,0,0,0,0,0.8658584434817365,0.5670270642074423,-0.07450229817656256,-0.2441178136012332,3.258907587398003,3.2585602234077715,-1.145477407631565,-0.15981379268333823,-0.13961750741213647,0.4753363460703308,3.259003968120094,3.2589481066403514,75735780
0,0,0,0,0,0,0,0,0,0,0,0,-0.49377614185525676,0.717305459654982,-0.8293211018229845,-0.6108976019498826,3.258555896110045,3.2584296176945706,0.019024767759414644,-0.17137633220867302,-0.13810177303573765,0.022359934134475484,3.2589968870874504,3.2590700577580995,75736837
0,0,0,0,0,0,0,0,0,0,0,0,-0.5787375186368845,-0.518824114659323,-0.5172824164965648,-0.6636048750406355,3.2586656521160187,3.258769507261456,-0.46505350649994687,-0.11303885138497966,-0.1645730334011356,0.09019111277951154,3.2591078232655315,3.2592136453644804,75737893
0,0,0,0,0,0,0,0,0,0,0,0,0.8953989381073639,0.21708164418716955,-0.25289986764191,-0.6232599047732239,3.259080679307065,3.2588088463316973,0.01765812845923048,-0.16196485304413474,-0.16241764574261255,0.5546706622446373,3.259156997103333,3.259040160064716,75738950
0,0,0,0,0,0,0,0,0,0,0,0,1.2054911262382417,0.011380793020819785,-0.5177741548745816,0.08147908228386429,3.259047634488062,3.2587498377263353,-0.2416917731394497,-0.053813881136641636,-0.14094992172121068,-0.8483738003222704,3.259048027878764,3.2590212773110006,75740007
0,0,0,0,0,0,0,0,0,0,0,0,0.4016322376289651,-0.03752986640094118,-0.5584515402855325,-0.35753353327912485,3.2585893343197503,3.2585972021337986,-0.33923535814706773,-0.12832562069006212,-0.14092356454414898,-0.43832614878727777,3.2594953131074087,3.2592403959322445,75741063
0,0,0,0,0,0,0,0,0,0,0,0,0.28258749039024,0.0619098617923095,-0.2922342171948215,-0.1786159013051869,3.2588513325275574,3.258992166399022,0.0336887995825767,-0.18094870817049838,-0.1491674601039243,-0.30206426406672765,3.259468955930347,3.2592667531093062,75742120
0,0,0,0,0,0,0,0,0,0,0,0,0.895605468226131,-0.6986929653516966,-1.037328402677584,-0.643525033417348,3.258865101202142,3.2587777684662065,0.10668480475959834,-0.11568637081222186,-0.12298376834199051,1.505343354385299,3.259204203987623,3.2592144321458854,75743176
0,0,0,0,0,0,0,0,0,0,0,0,0.8856522900643694,-0.4622639730291334,-0.3481692609988762,-0.33623614743186797,3.258575959035868,3.2584842990022063,2.5225616243555096,0.07504006326676169,-0.1153618234827308,2.369381579086969,3.258824975350496,3.2591625045731667,75744233
0,0,0,0,0,0,0,0,0,0,0,0,0.023342230718401753,-0.07827334144989745,-0.6761265010984542,-0.4139013068558343,3.2586971233722117,3.258550388640211,1.8033926729431953,-0.875285264883669,-0.13290704881036863,-1.1416910221208358,3.259153063196309,3.2590822528698746,75745290
0,0,0,0,0,0,0,0,0,0,0,0,-0.13938698046052223,-0.2985705612385942,-0.9562021918537845,-0.8830488303957975,3.258955581063697,3.2587777684662065,-0.7859301073467859,-0.12063404567647525,-0.12292554651803332,-0.49706331456462316,3.259440238409071,3.2590724181023143,75746347
0,0,0,0,0,0,0,0,0,0,0,0,0.22181767485352452,-0.6930647245722681,-0.9977953908199537,-0.637074212679173,3.259020097138893,3.258409161378045,-0.5336411754657239,-0.15139287130747692,-0.10065215833808878,-0.649739819734075,3.259119624986604,3.2590318988599654,75747403
0,0,0,0,0,0,0,0,0,0,0,0,0.034854416233827616,-0.5471687015496137,-1.1469781931612721,-0.5551706618274047,3.258799404954839,3.2585126231327797,0.08839095692526781,-0.20139794366335198,-0.09844681006035924,-0.10579102108371509,3.2592187594436117,3.259350151938218,75748460
0,0,0,0,0,0,0,0,0,0,0,0,-1.7377141282217654,0.6608507467330391,-1.2319053449517898,-0.9921459069425949,3.2588513325275574,3.258710498656094,0.6571229764369697,-0.10922178139946238,-0.11215096856963258,0.8639709548915571,3.2593552660173493,3.259204203987623,75749517
0,0,0,0,0,0,0,0,0,0,0,0,0.6491627155736345,-0.0779605958414788,-0.4430287412439276,-0.07275643023925188,3.258732921926131,3.258614904715407,0.9583261082561144,-0.18272093328487077,-0.11578983256695657,1.3203112507237493,3.259375722333875,3.259315140165703,75750573
0,0,0,0,0,0,0,0,0,0,0,0,0.9306400574016639,0.06748578160831709,0.22067330130020393,0.21569100805413818,3.2589418123891125,3.2585378001377343,1.6855831725100483,-0.16736217348124666,-0.13784449551635927,0.5260034949783676,3.2590362261576917,3.259086580167601,75751630
0,0,0,0,0,0,0,0,0,0,0,0,1.7766000123739256,0.5744460194642567,0.5493240892081367,0.26393841075163016,3.258909947742217,3.2585145900862917,1.3183671138724224,-0.42723135080711255,-0.12841767411442687,1.1678294739519923,3.2590889405118153,3.2589846919756758,75752687
0,0,0,0,0,0,0,0,0,0,0,0,2.093074571260759,0.4090810905791629,0.3264367850347501,0.20565757818908428,3.2586837480883295,3.2586865018232465,0.5291577016303184,-0.18688182674429735,-0.12098927748075455,0.9542486136255995,3.2593690346919337,3.259130639926271,75753743
0,0,0,0,0,0,0,0,0,0,0,0,1.9269374164268274,0.608193434261493,0.02933593146037238,-0.17189088724742974,3.258824188569091,3.2587514112891447,1.163381405279804,0.015920128335968054,-0.09528158846874099,1.2103738916365971,3.258964629049853,3.259210498238861,75754800
0,0,0,0,0,0,0,0,0,0,0,0,0.8313553251451641,0.31238408236313847,0.23492781340215363,-0.3776090476046857,3.2589366983099817,3.2585960219616914,-2.433686403475571,0.1439330034176115,-0.12253687650404887,-0.5118001236677316,3.259024817827322,3.258869035109166,75755857
0,0,0,0,0,0,0,0,0,0,0,0,-0.29296710407341764,0.2562157578725526,-0.45186508320153745,0.548087268839749,3.2587742279498846,3.2587038110141524,-0.1163390059875257,-0.14957658643443422,-0.13788226102379095,-0.13639878468499,3.2592462967927807,3.259332055965907,75756913
0,0,0,0,0,0,0,0,0,0,0,0,-1.318557908363093,0.6803884959684009,0.042159681577644534,0.06835674862346038,3.2585515688123188,3.2586597512554825,-0.8847057920343627,-0.17091409813333727,-0.12277999195814036,-0.7903872240051298,3.2592270206483622,3.259232134727494,75757970
0,0,0,0,0,0,0,0,0,0,0,0,-0.7515084208856131,1.2445001416802575,1.179875490650593,-1.0549102133405461,3.258835596899461,3.258633000687718,-1.3008946658247311,-0.21277047547942107,-0.11511634768442483,-0.6847039919738759,3.2591432284287487,3.258758492321788,75759027
0,0,0,0,0,0,0,0,0,0,0,0,2.7543037598495195,-0.03837722997393966,1.6799639797167754,0.6054613358332319,3.259088153730411,3.258789570187279,-1.0606289339815298,-0.13224929955593343,-0.1435573152968067,-0.21221854832393508,3.259292716895666,3.2588662813742495,75760083
0,0,0,0,0,0,0,0,0,0,0,0,1.6826236942557922,0.14441805415368728,-0.5289000307202376,-0.499746632545785,3.258374936386935,3.2587018440606403,-0.6022367122455492,-0.21892664658148842,-0.1385706947530144,0.8553789085601459,3.2590617965533486,3.259195942782872,75761078
0,0,0,0,0,0,0,0,0,0,0,0,1.5789782260630398,-0.289156328339139,-0.9436911873449311,-0.09848536234919576,3.25855668289145,3.258433944992297,1.758834094862234,-0.11446253233701376,-0.11795662855584961,2.263434775285098,3.259155030149821,3.259079105744255,75762072
0,0,0,0,0,0,0,0,0,0,0,0,2.0436481766281336,-0.2251123219862368,-0.11500501811564183,-0.03382766650052863,3.258878476486024,3.258942599170518,2.738671593507718,-0.02685245595603656,-0.14398689794384217,2.439374833032469,3.2592451166206735,3.2590464543159547,75763067
0,0,0,0,0,0,0,0,0,0,0,0,1.2411897589194487,-0.2354718727435914,-0.4030303481853423,-0.6785930608025862,3.2588548730438793,3.258695943200104,1.6844679098687063,-0.19329763570995756,-0.13953332180182001,1.3949705117905749,3.2594323705950226,3.2592978309747966,75764061
0,0,0,0,0,0,0,0,0,0,0,0,0.019315876879200562,-0.6102929604402734,-1.4381534025851967,-1.425028315189876,3.2586503098786244,3.258638508157552,0.5115699901068198,-0.5420341661017138,-0.13839524249973803,-1.6386465476329977,3.259361560268588,3.2595189165495535,75765056
0,0,0,0,0,0,0,0,0,0,0,0,-0.4364111228479293,-0.5398614692522847,-1.1240340738337127,-1.1214656259376556,3.25905864942773,3.2588088463316973,-0.546560912914385,0.06499207794571853,-0.12750264734061326,-1.3742836683134636,3.25933913699855,3.2591719459500244,75766050
0,0,0,0,0,0,0,0,0,0,0,0,-0.1305612600518775,-0.3852081758032055,-0.9938925616613103,-0.4283226166156073,3.2591546367591184,3.2588056992060777,-0.7013200284624134,-0.15190860651834087,-0.13448415213634396,-0.2376433894209134,3.2594323705950226,3.2590318988599654,75767045
0,0,0,0,0,0,0,0,0,0,0,0,0.1588173340341251,-0.6843735437838486,-0.36826208451534326,-1.1127437606744481,3.258906800616598,3.2583906720150315,0.015227367309018053,-0.16427444985800382,-0.13662734468309218,-0.40005906821001386,3.2594182085297354,3.2592978309747966,75768039
0,0,0,0,0,0,0,0,0,0,0,0,-0.19096994292377742,0.8315449394637273,-2.071210702802026,0.36138443486504973,3.2586294601713965,3.2582742283671173,-0.6052630669192155,-0.08444839530568066,-0.132930258861811,0.11961477036652211,3.2590539287393003,3.25871639951663,75769034
0,0,0,0,0,0,0,0,0,0,0,0,-0.08634886578903982,-0.3097802293038641,0.005870176061412819,-0.7074651846248131,3.2589182089469677,3.258620412185241,0.10407151032346611,-0.09871706947291725,-0.12316944875352964,0.35666886051522023,3.2590492080508717,3.2588033388618634,75770028
0,0,0,0,0,0,0,0,0,0,0,0,0.15032874945744867,-0.1929376832172493,-0.3039025788191055,-0.43520852747065153,3.258732528535429,3.258850545746153,0.04892875539407198,-0.03536425058415539,-0.13760688753210157,0.3717156614918305,3.259349365156813,3.2594256829530814,75771023
0,0,0,0,0,0,0,0,0,0,0,0,0.7693215452815944,0.27799898123729,-0.2028169039269571,-0.14160255689651452,3.258631033734206,3.2585220645096378,0.9780471775588008,-0.0783276293668305,-0.11448102170002718,1.1648023324969212,3.2589197825097775,3.25901144254344,75772017
0,0,0,0,0,0,0,0,0,0,0,0,0.8459937865726692,0.08638033704523289,-0.25658082444439223,-0.26032078985223644,3.258854086262475,3.258867068155654,0.6319168605705332,-0.07154872078284273,-0.15627406314302242,0.014805652476030882,3.25944181197188,3.2592687200628183,75773012
0,0,0,0,0,0,0,0,0,0,0,0,0.38406852293831384,0.07391103195083522,-0.03668014248372823,-0.24819019415261676,3.259134180442593,3.2589217494632896,-0.013346172970077152,-0.1302969014998557,-0.1574680039248471,-0.08047436242990046,3.259462268288406,3.259176666638454,75774006
0,0,0,0,0,0,0,0,0,0,0,0,0.575455853397352,0.46853186709068617,0.2714592542003696,0.16868042572503394,3.2585968087430963,3.25864952309722,-2.1021048548346584,1.0500144660490114,0.011512578906128276,0.17498844563823288,3.2591687988244056,3.2589949201339383,75775001
0,0,0,0,0,0,0,0,0,0,0,0,0.1318110623134449,0.3403128552809781,0.11287362728996603,-0.5796769356342477,3.2587498377263353,3.2586802075720076,-0.5055554396576213,-0.08880362377209947,-0.10806993342279593,-0.40591036151771087,3.2591270994099495,3.2593422841241697,75775995
0,0,0,0,0,0,0,0,0,0,0,0,0.06083472500261366,0.3916251649409729,-0.1393012212873961,0.06885517464341816,3.258867068155654,3.258767540307944,-0.8073738345353406,-0.1926800123071685,-0.14234055785424207,-0.5547249501615703,3.2591758798570485,3.258981151459354,75777052
0,0,0,0,0,0,0,0,0,0,0,0,2.399525141659396,1.1861040456419045,-0.8979646322685041,2.0485057650215346,3.2587938974850053,3.2585893343197503,-0.24776454541260545,-0.20975670930823198,-0.12089801083779463,0.6183940551750726,3.259145588772963,3.258989412664105,75778109
0,0,0,0,0,0,0,0,0,0,0,0,2.7155539888803943,-1.0895844566326685,2.5444412284423383,-2.3326723256912616,3.25880609259678,3.2583029458883934,0.767110689534031,-0.19377599880409227,-0.11772728177634259,0.847503620088532,3.258883590565156,3.259024817827322,75779165
0,0,0,0,0,0,0,0,0,0,0,0,1.2078927764764757,0.13832010487557708,-0.24225628879741296,-0.22833065132268085,3.258669979413745,3.258780128810421,0.20279251370340748,-0.19908165920754184,-0.11878550276583465,-0.4059508807600594,3.2589622687056385,3.258999640822368,75780222
0,0,0,0,0,0,0,0,0,0,0,0,-0.22299706017935994,-0.2461547906583298,-0.7660209972883459,-0.6135297791397308,3.2589874457105927,3.2590987752793756,-0.5569928475609836,-0.24829090217243457,-0.11896449553543274,0.29949109548224156,3.2596322130718485,3.259204597378325,75781279
0,0,0,0,0,0,0,0,0,0,0,0,-0.5531380120680346,-0.022883537159387728,-0.8747872322544136,-0.9931089273821029,3.2586448024087904,3.25859248144537,0.9500507414401461,-0.1773251864105685,-0.13628037408356358,0.8279843602161836,3.2592403959322445,3.2593938183061857,75782335
0,0,0,0,0,0,0,0,0,0,0,0,-0.4824280002627373,-0.5782748911708463,-1.0116120590701174,-1.3524642530041042,3.2586306403435037,3.258669979413745,0.808242047815567,-0.15461749489515958,-0.1107603324366012,0.31740571467944556,3.259016556622571,3.2586916159023778,75783392
0,0,0,0,0,0,0,0,0,0,0,0,-1.2838636021451475,-0.3358289880548701,-1.269098468911465,-1.0927229276565227,3.258968956347579,3.2587223003771664,0.5171482702670419,0.7820375063464053,-0.11666591366123123,1.244172447225147,3.2593104194772744,3.2590983818886734,75784448
0,0,0,0,0,0,0,0,0,0,0,0,0.6984545705860341,-0.30808746911137924,-0.6337335388342784,-0.27386129782930585,3.2588678549370593,3.2589012931467645,2.965750869006022,-0.4708481515464963,-0.13249044805651283,0.29035774354430954,3.2592494439184003,3.2592478703555905,75785505
0,0,0,0,0,0,0,0,0,0,0,0,0.6577571222492602,-0.02109400285410915,-1.0905742276399406,-0.1626241758613796,3.2586943696372948,3.2583021591069885,0.09986065624483301,-0.03643112616910054,-0.1167882581696818,-0.11263719947781556,3.259097201716566,3.258932371012255,75786562
0,0,0,0,0,0,0,0,0,0,0,0,0.7602637243585257,-0.6503586233089712,-0.2644325094738614,-0.528098300468719,3.2586192320131335,3.2588721822347857,0.3945657604415131,-0.14233977107283724,-0.14589877675757132,0.7419077207932139,3.258898539411847,3.2590232442645126,75787618
0,0,0,0,0,0,0,0,0,0,0,0,1.9534637514905633,-0.5887461648876864,1.7026413801480984,-0.8489123521938743,3.258979184505842,3.259141654865939,1.4481699166500468,-0.18443926387301252,-0.1364109797967648,2.0263468535359923,3.258939452044898,3.259416634966926,75788675
0,0,0,0,0,0,0,0,0,0,0,0,1.7991440533571306,0.3148250716716136,-0.4253883153663057,1.7229297188436647,3.2588548730438793,3.2588678549370593,1.6214427854350548,-0.1416694333159248,-0.10050778395030306,1.2511311353601378,3.259271080407033,3.2593355964822286,75789732
0,0,0,0,0,0,0,0,0,0,0,0,2.1006772399756004,0.9970341798107838,1.2651051598912668,1.3192845009904504,3.2590173434039764,3.2588989328025497,1.0962720985736962,-0.08411598016214133,-0.12155221957590813,0.4356829566577621,3.259151489633499,3.259020097138893,75790788
0,0,0,0,0,0,0,0,0,0,0,0,1.2032161478061854,0.31111146344083107,0.0465550358957095,-0.16949120396270798,3.2587077449211765,3.2590519617857883,0.089441703491414,-0.15258759887070641,-0.10804160929222217,0.3363045974140879,3.259212071801671,3.259244723229971,75791845
0,0,0,0,0,0,0,0,0,0,0,0,0.4058851845127564,0.027468505796015955,-0.4233057049877292,-0.04483906565178223,3.258629853562099,3.2587191532515467,0.31633451179677385,-0.11255812794663046,-0.13832915286173258,0.20019849541169352,3.2592175792715046,3.2592852424723198,75792901
0,0,0,0,0,0,0,0,0,0,0,0,-0.017376067325600066,0.24816659071047195,0.3472247299223816,0.1257068187840961,3.2587396095680723,3.2585350464028173,0.615949918740978,-0.018068041571145242,-0.1279814038254504,1.2751507848680954,3.258963842268448,3.259201843643408,75793958
0,0,0,0,0,0,0,0,0,0,0,0,1.4482670841535428,0.37336947600477643,-0.14810019112827671,-0.37871998294830117,3.2587817023732306,3.258441026024941,0.685426257303507,-0.281513140381949,-0.1355860394938039,2.0206336403648426,3.259160144228952,3.2586908291209733,75795015
0,0,0,0,0,0,0,0,0,0,0,0,0.7041760449619346,0.4879189476870236,0.330643705206359,0.293692516528668,3.2584925602069568,3.2589091609608127,-0.23623977139470234,-0.07025249841839055,-0.13596644830303767,0.053616005613327695,3.2591829608896923,3.2590413402368235,75796072
0,0,0,0,0,0,0,0,0,0,0,0,-0.27738607852292996,0.9350133818403937,-0.4492171703835929,0.06799050187951348,3.2587616394474077,3.2584776113602647,-1.7069285520229995,-0.1502866566522904,-0.1450883919105997,-1.2944965594406792,3.2590802859163626,3.2591833542803945,75797128
0,0,0,0,0,0,0,0,0,0,0,0,0.11264349372905418,-0.31621649458604983,-0.3283258471877393,-1.3163710494483767,3.2589783977244373,3.2586731265393647,-1.0595140647308903,-0.04893150912898887,-0.13226385501192273,-1.0479003844142418,3.2591463755543675,3.2592002700805986,75798185
0,0,0,0,0,0,0,0,0,0,0,0,-0.6600832414726306,-0.5199885511384666,-0.2559081263432653,-2.6445933871976597,3.25863654120404,3.2585275719794717,-0.33880459532792506,-0.004138863580091426,-0.11854514104666007,0.02969706412518789,3.259437091283451,3.259062583334754,75799242
0,0,0,0,0,0,0,0,0,0,0,0,0.5039456849033457,-1.300793957804913,-0.594719802703834,-1.0684861264808327,3.2587683270893484,3.258638508157552,-0.015414227892664419,-0.16105297339594046,-0.13473474201378133,0.4512364448590809,3.2590653370696705,3.2592199396157193,75800299
0,0,0,0,0,0,0,0,0,0,0,0,-0.1428023985388754,-0.3684103928101531,-1.0067780741188614,-1.1200258159668226,3.2587856362802547,3.2589311908401477,0.11843420486857949,-0.05843464832718948,-0.14196408295203242,0.7547936266414673,3.2591518830242014,3.2595322918334353,75801355
0,0,0,0,0,0,0,0,0,0,0,0,-0.26529128137722985,-0.17451086932550303,-0.49282728348103566,-0.5671281656179625,3.2585665176590104,3.258293897902238,0.39349495094954384,-0.11529101315629639,-0.13296605741573064,-0.04290830408433724,3.259276194486164,3.259064550288266,75802412
0,0,0,0,0,0,0,0,0,0,0,0,-0.5710148657578069,0.0752163023014429,-0.501527118864908,-0.7933549634641366,3.258732921926131,3.2585181306026136,-0.4920892825233081,-0.018012966872807366,-0.1555431432179383,-0.5982941506259621,3.259324581542561,3.2590374063297993,75803469
0,0,0,0,0,0,0,0,0,0,0,0,0.1972346898597109,-0.050689965568776786,0.09805459953005308,0.2778081867466195,3.2589339445750642,3.25887296901619,-0.43264519365372583,0.16856201512360752,-0.13993340014617445,0.8230775979849813,3.2591983031270866,3.259322614589049,75804526
0,0,0,0,0,0,0,0,0,0,0,0,1.1021709921563854,0.17360371036573768,0.06722378340050976,0.5278292212282683,3.2588234017876863,3.258906800616598,0.7114714755381912,-0.7658966858263833,-0.12200579905579079,-0.05310302413738061,3.2589957069153437,3.2589567612358046,75805582
0,0,0,0,0,0,0,0,0,0,0,0,1.104390895890104,-0.06274699720704523,-0.45066720851268866,0.4295429145744937,3.2589764307709252,3.258765179963729,0.9706750357955736,-0.06089137326376119,-0.13166590114425433,1.3836207966352458,3.25935369245454,3.259294290458475,75806639
0,0,0,0,0,0,0,0,0,0,0,0,0.3840586881707535,-0.4892305122888699,-1.1392535733286826,-0.14244008570195266,3.258723087158571,3.2588277290854126,1.6715823974111552,-0.10578748056739337,-0.13969264503629744,1.0819983103273285,3.259611756755323,3.259161717791762,75807696
0,0,0,0,0,0,0,0,0,0,0,0,-0.003720295872723564,-0.035792653059083586,-0.667715414490153,-1.7264761360259218,3.259046060925252,3.258843071322807,1.1473456200773262,-0.12630437926106206,-0.11660021741392819,0.9118391289519225,3.2590783189628505,3.2590090821992255,75808753
0,0,0,0,0,0,0,0,0,0,0,0,2.050764614434792,-2.879042444114976,2.549752789706324,-1.5627858713610019,3.258736462442453,3.2585857938034284,0.5317804374433085,-0.16288420711567486,-0.157529766265126,0.1613425089529167,3.259258885295258,3.259204203987623,75809809
0,0,0,0,0,0,0,0,0,0,0,0,-0.3939261071593889,0.010070015200378321,-0.6145179765841933,-0.7897196399831342,3.2587219069864637,3.2583631346658626,0.03676511487544952,-0.10703059518701973,-0.1129287019883039,0.3654273111137522,3.259023637655215,3.2594685625396442,75810804
0,0,0,0,0,0,0,0,0,0,0,0,-0.2393754886836396,-0.03033632401660967,-0.49753459662611443,-1.0329668799599265,3.2587435434750964,3.2589469264682442,0.4512773574921319,-0.14479059514887274,-0.10520368876501186,0.2719584670017322,3.2593938183061857,3.2589264701517187,75811799
0,0,0,0,0,0,0,0,0,0,0,0,0.5016168119450584,-0.10568362542195622,-0.4775586101482642,-0.5581482360539718,3.258642048673874,3.258957548017209,-0.6595435094289195,0.18712179507276952,-0.11776465389307186,0.2273688110552801,3.258846611839129,3.258786423061659,75812793
0,0,0,0,0,0,0,0,0,0,0,0,-0.2635977344033401,0.0703858578665087,-0.31572239586381856,-0.5151773828479508,3.258651490050732,3.258597595524501,0.5687843404751229,-0.2958294148241776,-0.12675599178743263,-0.7670902332175056,3.2593591999243734,3.259274227532652,75813788
0,0,0,0,0,0,0,0,0,0,0,0,-0.05303457415516068,-0.10535042349701207,-0.5392190622352435,-0.532598296713626,3.2590641568975633,3.2587372492238575,1.8579366872235163,-0.637876336321394,-0.13699005091071736,2.0116891159640686,3.2595932673923094,3.2593053053981427,75814783
0,0,0,0,0,0,0,0,0,0,0,0,0.5658126671090921,-0.2584553311413921,-0.8171267768295737,-0.7001748681276879,3.2588953922862283,3.258823008396984,1.0836969713803495,-0.14708760346026462,-0.1281249914318313,2.0866532548252645,3.259075171837231,3.2585692713939274,75815777
0,0,0,0,0,0,0,0,0,0,0,0,2.1838837008337615,-0.09255775124523058,1.298214101578486,0.5040849452120001,3.2587789486383136,3.2587183664701422,0.04946691387497352,-0.23046440249257116,-0.15638342575829334,-0.4014017106773508,3.2591310333169736,3.2592431496671614,75816772
0,0,0,0,0,0,0,0,0,0,0,0,2.976449915939559,0.5075920233240155,0.8239528922978511,0.3907353151721138,3.2593324493566094,3.2587242673306784,-1.4478725132790224,-0.10261753828734616,-0.1453527504626215,-0.3667192061804779,3.2593438576869795,3.2595755648107008,75817766
0,0,0,0,0,0,0,0,0,0,0,0,0.6691729270425947,1.8043332701126658,-1.7517798127865567,1.5114117993607281,3.258607036901359,3.2588017652990535,-0.24848917108645094,-0.1613531305018819,-0.14398099708330597,0.8359068555720872,3.2589768241616275,3.259108610046936,75818761
0,0,0,0,0,0,0,0,0,0,0,0,-0.9808197952294105,1.1166056772000403,-0.4621168449064308,0.15961434359721466,3.2585676978311175,3.258560616798474,-0.27215319539942684,-0.3290016924144855,-0.14198729300347482,-0.6340702812755442,3.2590712379302067,3.2584331582108925,75819756
0,0,0,0,0,0,0,0,0,0,0,0,-0.35200167322178755,0.19806120372548147,0.06588900874722108,0.038811533309404046,3.2591652583080837,3.259077532181445,-0.8190831087926755,-0.16965721483912644,-0.15330789724682536,-0.3436169437905483,3.2590641568975633,3.2590724181023143,75820750
0,0,0,0,0,0,0,0,0,0,0,0,0.35902055013424755,0.1818940260283978,-0.0064193494819819305,0.20279841456394368,3.2588127802387215,3.2588017652990535,-0.49927810421921065,-0.19220322277584345,-0.1493700563156672,-0.6879419908454407,3.259104676139912,3.25911254395396,75821745
0,0,0,0,0,0,0,0,0,0,0,0,0.8693253957421059,0.0150409001160741,-0.4142002837896685,-0.44310427225879095,3.25864794953441,3.2584685633741097,0.014904393542336646,-0.12880713090981613,-0.15128940955274217,0.2707570517965617,3.2591188382051985,3.259128672972759,75822740
0,0,0,0,0,0,0,0,0,0,0,0,-0.1733543006604076,-0.20840187172912022,-0.9247993856429321,-0.5659719903435695,3.2589878391012954,3.2590263913901314,0.5256010562897988,-0.13296251689940894,-0.1587091515909614,0.5712851251703649,3.259551174587151,3.2586967299815095,75823734
0,0,0,0,0,0,0,0,0,0,0,0,0.7101221454289133,-0.42321404495406684,-0.3248899727928606,-0.34964565630503375,3.2591459821636652,3.258989019273402,-0.9926089277993354,0.014502348244470149,-0.13660374124094737,-0.8396881270036848,3.2591908287037406,3.2593108128679766,75824729
0,0,0,0,0,0,0,0,0,0,0,0,0.9609067512639464,-0.8362038655524093,-1.0227953699583257,-0.7123145118134632,3.2585673044404153,3.2585067222722435,1.3128002420425702,-0.14831183532617512,-0.14274575027772787,0.727483657298524,3.2592344950717083,3.2592879962072363,75825723
0,0,0,0,0,0,0,0,0,0,0,0,1.4222407486725746,-0.5975412008215428,-0.720944323652306,0.20113122476711567,3.2589437793426246,3.258787603233767,0.833162168641349,-0.13058801061964162,-0.1399294662391503,0.5746710389460372,3.25921521892729,3.2592565249510432,75826780
0,0,0,0,0,0,0,0,0,0,0,0,1.6225242164759894,0.11394050287491117,-0.7993529915038337,1.2761204929495444,3.258910734523622,3.258839530806485,0.47691148244279413,-0.13591294716750946,-0.11978235480575022,-0.1302264845641237,3.2591837476710968,3.2588808368302384,75827837
0,0,0,0,0,0,0,0,0,0,0,0,2.0296178972265597,-1.2004907370198652,1.5654050666576702,-3.0545375769779173,3.2588293026482225,3.25864794953441,0.08104438555769748,-0.13743654935795657,-0.12317141570704171,-0.8460472877081975,3.2592329215088984,3.2591337870518906,75828894
0,0,0,0,0,0,0,0,0,0,0,0,2.392073534974281,0.5394665049870616,-0.7461830909470427,0.2894147860306246,3.2585177372119114,3.2588147471922335,-0.07380245611696912,-0.1960340614359452,-0.11317693152152675,0.4818442084603558,3.2591499160706894,3.259145588772963,75829950
0,0,0,0,0,0,0,0,0,0,0,0,1.0890946852081638,-0.1610840512614311,-0.5062403328705231,-0.5554700321519414,3.258821041443472,3.2589988540409625,0.5582631061390765,-0.07220686342798036,-0.1492799698448145,0.5693417751004427,3.2595118355169097,3.2593072723516547,75831007
0,0,0,0,0,0,0,0,0,0,0,0,-1.0676261744053572,-0.05895707117999448,-0.5183453581744859,-1.010595537495081,3.258731741754024,3.2588737557975955,0.24975628253892448,-0.09678119382634089,-0.12316315450229101,0.0907123554602093,3.2592990111469042,3.2590409468461212,75832064
0,0,0,0,0,0,0,0,0,0,0,0,-0.7656114775671335,-0.3952695364081307,-0.8321484008012295,-1.0318012633086755,3.2587832759360404,3.2586333940784207,0.5742418496897042,-0.2119534029905084,-0.1454235607890559,0.4070303448474818,3.259085793386196,3.259234101681006,75833121
0,0,0,0,0,0,0,0,0,0,0,0,-0.451569646784025,0.1352980774996373,-0.27941046707754935,-0.2867110117329373,3.2587514112891447,3.2586211989666456,0.23263906629551248,0.08337679903230655,-0.1193940781824682,-1.1369199796819662,3.259468169148942,3.2591149042981744,75834177
0,0,0,0,0,0,0,0,0,0,0,0,-0.34500994026779414,0.2952684396825361,-0.370868297918832,0.13834882239685325,3.258935124747172,3.258751017898442,0.6171414991785883,0.2958856696946227,-0.07836460809285736,1.1124219670798738,3.259524030628685,3.2591333936611884,75835234
0,0,0,0,0,0,0,0,0,0,0,0,0.3735862342818062,0.0019874098285925183,0.5748488515435279,-0.9874657377559826,3.258824581959794,3.2584583352158467,-0.13986022947552557,-0.2153597730827061,-0.11838621120288505,-0.23231923965445037,3.2595964145179286,3.2587482641635255,75836291
0,0,0,0,0,0,0,0,0,0,0,0,1.4021746757238716,-0.12169895430790832,0.01507669866999372,-0.21181296250974685,3.258854479653177,3.2586837480883295,-0.7902766812177516,-0.14872922286143575,-0.09648103672039947,0.16310568608113363,3.25883048282033,3.258881230220941,75837348
0,0,0,0,0,0,0,0,0,0,0,0,0.6983027217749025,-0.06201922440758042,0.6838888864384753,-1.3741389005349756,3.2588088463316973,3.2588159273643402,0.09240393548058694,-0.19616545393055126,-0.12839328389087723,-0.24571065255530505,3.259164078135976,3.2590708445395045,75838404
0,0,0,0,0,0,0,0,0,0,0,0,-1.113374759361119,2.7600315284766586,-1.687693320237794,0.09642596202206159,3.2589217494632896,3.2588717888440835,-0.7451882058606393,-0.1834730963078852,-0.14091963063712484,-0.9732108322633304,3.2595562886662828,3.259400505948127,75839461
0,0,0,0,0,0,0,0,0,0,0,0,-0.2840870957478399,-0.2833738784043644,-0.3176700732314674,-0.7403786111329329,3.2589378784820884,3.2588871310814773,-0.8958930368295951,-0.19349354427975943,-0.14244480639038162,-0.5360207958246226,3.259385163710733,3.2591939758293598,75840518
0,0,0,0,0,0,0,0,0,0,0,0,-0.5343268554600304,0.03671240052132612,-0.2901756036490922,-0.5682520828547576,3.259007508636416,3.2587348888796432,0.8889245139270441,-0.19460841353039904,-0.13494559943027487,1.0260093719970431,3.2591837476710968,3.259077532181445,75841575
0,0,0,0,0,0,0,0,0,0,0,0,-0.4061365611715986,-0.24246439247898965,-0.8777227136758224,-1.0195062302954472,3.2588576267787963,3.258883590565156,0.864473314818539,-0.35149341243426946,-0.11566001363516015,-0.7350540679757676,3.2596027087691675,3.259433944157832,75842631
0,0,0,0,0,0,0,0,0,0,0,0,-0.8339115779294465,-0.6217182066104657,-1.4422800710535133,-1.2158612985445616,3.258666045506721,3.258461482341466,-1.0481301245844512,0.05719546761458726,-0.12398888158665676,-0.19566348739427175,3.259383590147923,3.259378476068792,75843626
0,0,0,0,0,0,0,0,0,0,0,0,0.5720471229609397,-0.758383710191692,-1.0918102612269236,-0.7696681224904206,3.2591463755543675,3.2589937399618316,0.24740655987340923,0.608370460077579,-0.11998495101749312,2.272417065193303,3.2591432284287487,3.258856053215987,75844620
0,0,0,0,0,0,0,0,0,0,0,0,0.5300322091617833,-0.69213592912387,-1.2719458308155334,-0.8276916775335881,3.2585728119102493,3.258469350155514,1.5661084492335853,-0.20577952930683246,-0.09575287053023225,1.1809112883700474,3.25914676894507,3.2590653370696705,75845615
0,0,0,0,0,0,0,0,0,0,0,0,-0.004407549429839781,-0.49451532298509154,-1.1420918872465953,-0.41714402641582804,3.2585082958350533,3.25852088433753,1.9262725861397487,-0.1302119291081344,-0.1402280497822821,1.44801885462032,3.259490985809682,3.25946462863262,75846609
0,0,0,0,0,0,0,0,0,0,0,0,0.10485317764916154,0.21834993581175036,-0.6228429106286657,-0.4039461617405607,3.259088547121113,3.2590043615107964,0.39993515013875364,-0.20579329798141693,-0.12231028345945875,-0.11788660501082002,3.2596302461183364,3.259176666638454,75847604
0,0,0,0,0,0,0,0,0,0,0,0,-0.4281636867718323,1.719915165891071,-2.1161646385389137,1.20995217680361,3.258907980788705,3.25859090788256,0.15695541583960243,-0.21716386284397396,-0.14102427256396682,0.2593518685521923,3.2591672252615957,3.259275014314057,75848598
0,0,0,0,0,0,0,0,0,0,0,0,1.9296337163011688,-0.6447213345433872,0.9688386879967079,0.039158503908932676,3.2587667535265386,3.258431978038785,1.1084687839113216,-0.09679181537530605,-0.12994914411892225,0.9056444055610187,3.259200663471301,3.2591652583080837,75849593
0,0,0,0,0,0,0,0,0,0,0,0,0.6819793679689606,0.3321598329734603,0.02288943801992393,-0.16622684791408157,3.259001214385177,3.2591628979638694,0.7264030130389943,-0.14553921765556546,-0.12445780330393354,0.08897042142992274,3.2592758010954617,3.259592087220202,75850587
0,0,0,0,0,0,0,0,0,0,0,0,0.8250799566602656,-0.03043821220853474,-0.2548798030471567,-0.3407530594769787,3.258679027399901,3.258789963577981,0.2480328378716514,-0.08975995656966645,-0.14231066016085864,1.275666126688257,3.25905550230211,3.2592128585830755,75851582
0,0,0,0,0,0,0,0,0,0,0,0,0.7305048978930591,-0.10675010761619896,-0.5040837650398927,-0.29567559905953394,3.258562977142689,3.2584150622385812,1.0632500962317104,-0.28924877515420616,-0.15240427880338175,0.4562651582080314,3.2592482637462927,3.2587832759360404,75852576
0,0,0,0,0,0,0,0,0,0,0,0,0.9748390763806195,-0.11930556527442518,-0.470738395540523,-0.22446873479708848,3.258797044610625,3.2588977526304426,-0.14482914743770928,0.22672128995910762,-0.15157933850042088,-0.11804986215232158,3.2589547942822925,3.259411914278497,75853571
0,0,0,0,0,0,0,0,0,0,0,0,0.10310848988395808,0.12697589719008173,-0.07015297057067997,-0.285165379663155,3.258828515866818,3.2587474773821206,0.1075966844077926,-0.35852920514693315,-0.07144840615372731,1.8285641704278195,3.2590802859163626,3.2593308757937995,75854565
0,0,0,0,0,0,0,0,0,0,0,0,0.2766531916443338,-0.1286124025121215,-0.595293759738655,-0.5919998993873477,3.2589272569331236,3.258697516762914,-1.3461479718861544,-0.1169672509392799,-0.13855102521789373,-0.10464271362337037,3.2594953131074087,3.259025604608727,75855560
0,0,0,0,0,0,0,0,0,0,0,0,0.30164805670357425,-0.4612942649476844,-0.642121415391137,-0.11636457638318257,3.258845825057724,3.2584732840625383,-0.23337470690902554,-0.11275128278151544,-0.1422591259788425,-0.18578662702877843,3.2594060134179608,3.2593249749332633,75856554
0,0,0,0,0,0,0,0,0,0,0,0,1.1419962933059087,0.770588656734068,-0.5652611333443085,-0.30321021118285785,3.2587352822703455,3.2590519617857883,0.068921657672126,-0.16359427733353105,-0.12927290550147358,1.2258007080317388,3.2590409468461212,3.2592112850202657,75857549
0,0,0,0,0,0,0,0,0,0,0,0,1.40281668935021,-0.6674813470222171,1.2711161698241435,-1.2813844539385382,3.2588312696017345,3.2587301681912146,0.3972467180784604,-0.107931066504844,-0.16008365870519384,-0.1101556909269918,3.2592997979283087,3.2590157698411666,75858543
0,0,0,0,0,0,0,0,0,0,0,0,0.025806823469021734,0.31132940188996816,-0.11523200455093438,-0.14958327407637526,3.25856809122182,3.2587710808242654,-0.3744894593345474,-0.17293455278093253,-0.11462382252500325,-0.29172005554676717,3.2591861080153115,3.258837563852973,75859600
0,0,0,0,0,0,0,0,0,0,0,0,-0.06520726265993865,0.020795025920274962,0.11508487642823176,-0.02758258909971584,3.258516950430506,3.2585492084681045,0.47672108134282604,-0.18151479739127127,-0.1422886302815235,2.034183983109472,3.2591392945217246,3.258863921030035,75860657
0,0,0,0,0,0,0,0,0,0,0,0,1.4163111706150973,0.31309966005082845,-0.23470987495301662,-0.11280085001001955,3.2586361478133377,3.258704204404855,1.9859550697749937,-0.29571611830188255,-0.13021861675007543,0.4457809025980118,3.2592289876018743,3.2591156910795798,75861713
0,0,0,0,0,0,0,0,0,0,0,0,1.0613830639580566,-0.05624896958458061,-0.5429574540802782,-0.2853624684050642,3.2590732048837188,3.258644015627386,0.40657440502338466,-0.27187782190773746,-0.11935749284714375,-0.5173677822789886,3.2592557381696388,3.2593957852596978,75862770
0,0,0,0,0,0,0,0,0,0,0,0,0.9294909631599143,0.17465524371328875,-0.34694463574226325,-0.36620622470453074,3.2587266276748927,3.258790750359386,0.6914998163580675,0.0037600283336673176,-0.11815529086056838,0.8472644385414646,3.2592832755188077,3.259317107119215,75863827
0,0,0,0,0,0,0,0,0,0,0,0,1.8241947798961138,0.03647046523934188,0.29640769915672527,0.7706244552879875,3.258752591461252,3.2585979889152035,-2.719834079722652,1.2302806413508225,-0.13223159697432482,-0.39878566250630165,3.2591943692200624,3.2592773746582715,75864883
0,0,0,0,0,0,0,0,0,0,0,0,2.466997547983831,0.724919143309491,1.0448874050244574,1.1816650249558718,3.259163684745274,3.2590964149351613,0.028301707303727542,-0.20966740961878413,-0.13695228540328566,-0.12573750325888433,3.2589681695661747,3.2593438576869795,75865940
0,0,0,0,0,0,0,0,0,0,0,0,1.2255607397032666,0.07408294368778988,-0.05380758688540302,-0.566769786688064,3.25899846065026,3.258740396349477,0.0012537361685915193,-0.11089644561963624,-0.12222688463054711,0.18618080451259666,3.2597163986821647,3.2593717884268507,75866996
0,0,0,0,0,0,0,0,0,0,0,0,1.346693604790402,-0.26473030623558835,-0.4253359944028848,-0.6126049175983569,3.2585818598964043,3.2585735986916537,0.19774295064722902,-0.1582343290131484,-0.09954673046430712,-0.03576157519359293,3.2594170283576283,3.258959908361424,75868053
0,0,0,0,0,0,0,0,0,0,0,0,-2.2316625752046795,1.359892256247074,-2.402809560633845,-2.03633858398659,3.259024817827322,3.2586160848875148,0.2968671794971442,-0.1514656485874234,-0.11501760661811908,-0.1523590388726042,3.258970136519687,3.258690042339568,75869110
0,0,0,0,0,0,0,0,0,0,0,0,-0.5749267429026059,-0.6130486623106792,-0.9916049947267764,-0.7343015115620507,3.2589901994455097,3.258697516762914,0.028065279491577087,-0.15623905137050764,-0.1394947695129835,-0.4956085557470984,3.259064550288266,3.259319860854132,75870166
0,0,0,0,0,0,0,0,0,0,0,0,0.24775982472417646,-0.25516697825991846,-0.39948629134729996,-0.20393649386602566,3.258745117037906,3.25857792598938,0.08245626478865918,-0.2402409482289491,-0.14919853796941493,0.6519215645696598,3.2593918513526736,3.259318680682025,75871223
0,0,0,0,0,0,0,0,0,0,0,0,1.4625306442416481,0.3945397966551538,-0.237790517543616,-0.13801089978348013,3.259106643093424,3.2592557381696388,1.5085612903310406,0.12660768349262277,-0.1351108235252885,3.1362153215665005,3.259254951388234,3.259092481028137,75872280
0,0,0,0,0,0,0,0,0,0,0,0,0.9630963639135793,0.16800261354477566,-0.2200828218558814,-0.22418667366345807,3.2589359115285763,3.2585409472633535,2.0231954006189583,-0.03822498777210566,-0.12525048556929652,0.8967419739654033,3.259379656240899,3.259003574729392,75873336
0,0,0,0,0,0,0,0,0,0,0,0,-0.2495332300106561,-0.45531866017802475,-0.23890499340355317,-0.6393279480132994,3.258880050048834,3.258696336590807,1.6121206059599644,-0.8698442780785892,-0.1374585792372917,-0.9020228507546008,3.259467382367537,3.2596361469788726,75874393
0,0,0,0,0,0,0,0,0,0,0,0,-0.06671552261299164,0.0678618631198243,-0.6022654297668254,-0.4969433304003871,3.2589768241616275,3.2591522764149037,0.718089487324892,-0.26982274887832985,-0.12664151509303034,-1.2294309174336095,3.259303731835333,3.259393031524781,75875449
0,0,0,0,0,0,0,0,0,0,0,0,-0.3548974221822527,0.5142883198604965,-1.1133814470030603,-0.20676536640708046,3.258644015627386,3.2586267064364796,-0.3329462209875847,-0.1757484764752956,-0.1295868312819995,0.8366456433112196,3.2592785548303786,3.259012622715547,75876506
0,0,0,0,0,0,0,0,0,0,0,0,0.6500269949468368,-0.08361086650024252,0.1048582917282929,-0.7804674840530734,3.2589457462961366,3.2585456679517826,0.19504074991235135,-0.14527839961986536,-0.1305053985721348,0.7577314684070907,3.2593753289431726,3.2590134094969523,75877563
0,0,0,0,0,0,0,0,0,0,0,0,1.4322596230816391,-1.1134856955391998,0.31486913143028394,-1.008627797201609,3.258539373700544,3.2588068793781853,-0.48623090818296766,-0.1199546599334073,-0.14374850317817964,-0.39405985999820947,3.258913488258539,3.2594229292181645,75878620
0,0,0,0,0,0,0,0,0,0,0,0,-0.3657074052938706,-0.32718344058793075,-0.7941208951617353,-0.8865256174237272,3.258936304919279,3.25869200929308,-0.9080169448872739,-0.2761264414938022,-0.16110490096865904,-0.20879014835240226,3.2594288300787007,3.2593470048125983,75879676
0,0,0,0,0,0,0,0,0,0,0,0,0.4061593778323385,-0.46708694304072174,-0.49545159285683543,-0.1369597598266315,3.258883590565156,3.2587514112891447,-0.5615298225319174,-0.10446686797939157,-0.12226701048219328,-0.48590242694645247,3.2597931098691353,3.2594603013348937,75880733
0,0,0,0,0,0,0,0,0,0,0,0,0.224043872838482,0.019153013128401414,-0.7470666464646634,-0.48273012432219076,3.259250624090507,3.258501608193112,-0.6823263385684893,-0.23346085947285405,-0.1117021097781789,0.2124254718334045,3.259300584709714,3.259404439855151,75881790
0,0,0,0,0,0,0,0,0,0,0,0,-0.48261486084638366,-0.4205452824288943,-0.3186681054434902,-0.6459616954280967,3.2584536145274177,3.2588576267787963,0.8055768258067161,-0.2696701132857935,-0.13187754534215274,1.662018676044783,3.2590621899440513,3.259186501406014,75882846
0,0,0,0,0,0,0,0,0,0,0,0,0.06208688760839553,-0.147133630172447,-0.32921412339378875,0.1462599094223868,3.2589654158312573,3.2587392161773696,2.595774387809561,-0.2581119010581852,-0.1442374878212795,0.987795399164605,3.2593591999243734,3.2592215131785287,75883903
0,0,0,0,0,0,0,0,0,0,0,0,1.7487200199031854,0.09624578908035625,0.6447748356789154,1.2306893742906302,3.258974070426711,3.2588973592397403,0.05228123096003901,0.7344356577915737,0.07564706512058557,2.8860255224735165,3.2594732832280733,3.2593230079797513,75884960
0,0,0,0,0,0,0,0,0,0,0,0,3.0877468332942524,0.23812017895223841,0.5167112131966607,0.47872068628319336,3.2589193891190753,3.2585153768676967,0.912023235800652,-0.39196505450785807,-0.11289841090421805,-0.6324742951958531,3.2588938187234184,3.2588969658490377,75886016
0,0,0,0,0,0,0,0,0,0,0,0,2.3081735263077645,-0.39633090452324204,-0.05912544240062742,-0.5078681835971097,3.2585362265749245,3.258708531702582,-1.3078328976431963,-0.23055448896342384,-0.11392201351189775,-0.682182357571406,3.2590633701161584,3.259130639926271,75887073
0,0,0,0,0,0,0,0,0,0,0,0,0.18591801952338452,-0.8790393923568002,-0.28295649086910374,-1.9087552915519823,3.259055108911408,3.258728988019107,-0.24522953572625347,-0.14277604136181368,-0.1231391576694438,-0.1743908851612669,3.2595940541737143,3.2592219065692314,75888130
0,0,0,0,0,0,0,0,0,0,0,0,-1.582626924827924,-0.2835241536526863,-2.159272785100077,1.6054821378567383,3.2591829608896923,3.2590657304603727,-0.6953696006977081,-0.13640350537341897,-0.12751444906168566,-0.6083688865147694,3.2593654941756123,3.2593104194772744,75889186
0,0,0,0,0,0,0,0,0,0,0,0,-0.2134522215667035,-0.3789741133420602,0.052881938562624284,-0.4833611230088619,3.2589874457105927,3.258465022857788,0.16019302132046476,-0.21604505968631024,-0.11537165825029114,-0.3287943755143136,3.25910113562359,3.25893158423085,75890243
0,0,0,0,0,0,0,0,0,0,0,0,0.8733253924042454,0.2741771905633438,0.2951527828160265,0.007652629334047953,3.2588021586897558,3.258671946367257,0.27064650900918347,-0.20340895693408928,-0.112885035620336,0.46021322729745234,3.2594323705950226,3.25920381059692,75891300
0,0,0,0,0,0,0,0,0,0,0,0,1.12138970153209,0.0936970107194198,-0.39868849500280557,-0.2628121331706205,3.259075171837231,3.2590975951072685,0.6023987892149436,0.04052278286490236,-0.11218716051425463,1.3301849639636234,3.259303731835333,3.259610183192513,75892356
0,0,0,0,0,0,0,0,0,0,0,0,1.4330192605279992,-0.18444241099863182,-0.4320940532796446,-0.33191278361234466,3.258850545746153,3.258699483716426,0.9001306414759923,-0.06194684051833635,-0.10915215124513522,0.27081684718332855,3.2591137241260677,3.2589284371052307,75893351
0,0,0,0,0,0,0,0,0,0,0,0,0.5398115086330781,-0.2968093510638894,-0.38226640013055796,-0.2654517847838145,3.2587588857124903,3.258314747609466,-0.834117714657511,0.05578201482081589,-0.1394129442468815,-1.1915442456655796,3.2590393732833114,3.2589205692911825,75894345
0,0,0,0,0,0,0,0,0,0,0,0,0.4540755455583984,-0.3627927735796897,-0.8055343396108555,-0.4385031746033638,3.2588363836808663,3.2588379572436756,1.2837786297534262,-1.315880491242467,-0.16178074619540525,-1.2472043093686471,3.2591518830242014,3.2595598291826042,75895340
0,0,0,0,0,0,0,0,0,0,0,0,0.9411365081234584,-0.9560216255213767,0.08262896330701866,-0.8226090696584069,3.2589174221655632,3.25870656474907,-1.2217188861034973,-0.05488941131703988,-0.12913993944405788,-0.13947037928943387,3.259281701955998,3.2593867372735423,75896334
0,0,0,0,0,0,0,0,0,0,0,0,0.4194036626104906,0.05854243737965076,-0.13844559650964694,-0.6816945531004134,3.258936304919279,3.25881750092715,-0.7655591566037125,-0.10605026555660553,-0.15111749781578754,0.17089324842610934,3.259250230699805,3.2590834330419813,75897329
0,0,0,0,0,0,0,0,0,0,0,0,0.8781652782160375,0.7304325140038149,-1.8258210570598907,0.7587082575211831,3.2587738345591823,3.2584842990022063,-0.4294386660383541,-0.18952265852959851,-0.11924222937133662,-0.3241039781694386,3.2592754077047594,3.259286422644427,75898323
0,0,0,0,0,0,0,0,0,0,0,0,0.9920711627091363,1.2679883203492546,0.5205868983968375,0.32975778934452404,3.258856446606689,3.2591963361735745,-0.4560098476421651,-0.13963127608672093,-0.13626778558108635,0.49019038560275857,3.2592132519737778,3.2593234013704535,75899318
0,0,0,0,0,0,0,0,0,0,0,0,2.088198886895047,0.10206836486677703,0.34561733551232043,0.7033310417331506,3.2588666747649517,3.258756525368276,0.34825934746972886,-0.25622126534238643,-0.1169086357246203,-0.4987843988876818,3.2589418123891125,3.259110183609746,75900312
0,0,0,0,0,0,0,0,0,0,0,0,2.5014979125854864,0.5119846239071636,0.728165009995104,0.32401703882420524,3.258780522201123,3.258358807368136,-0.7880426154187459,-0.16759742112128986,-0.15335707108462704,-0.9816002823829988,3.2591833542803945,3.2591184448144963,75901306
0,0,0,0,0,0,0,0,0,0,0,0,0.5741663186748407,-0.01822775819632509,-0.519228520301404,-0.8845814805724,3.258848972183343,3.258578319380083,-0.4343733590094279,-0.22892978536245648,-0.12951326722064818,-0.15441725902763115,3.25899846065026,3.259153063196309,75902301
0,0,0,0,0,0,0,0,0,0,0,0,-0.9194174074432143,-0.6757767767640086,-1.6860674364647192,-1.4829566696830594,3.25824039676671,3.258928043714528,0.4440531306330121,-0.08812581159184116,-0.13268556984490987,-0.21508479298171912,3.259116084470282,3.2593922447433763,75903295
0,0,0,0,0,0,0,0,0,0,0,0,-0.4246204167151948,-0.6264314206160808,-1.02463801200843,-0.4411062408812333,3.2588890980349894,3.2586353610319327,2.1486079631576493,-0.3698352539342944,-0.11498495518981876,1.9002682805381155,3.2592765878768666,3.2589968870874504,75904290
0,0,0,0,0,0,0,0,0,0,0,0,0.18023824456193976,-0.0013859154446024232,0.09090747724860634,0.4459756309957064,3.259260065467365,3.2590488146601695,0.49070179351589605,-0.15708130086437472,-0.14137399689841232,0.8071975955006594,3.2592978309747966,3.259097988497971,75905284
0,0,0,0,0,0,0,0,0,0,0,0,0.9476034578804323,0.6221883084998497,0.7802731490460811,1.4904417145778792,3.2587872098430646,3.2587132523910105,1.1373684450827175,-0.08886656628448561,-0.11989171742102116,0.34786831711152993,3.259267146500009,3.2590385865019065,75906279
0,0,0,0,0,0,0,0,0,0,0,0,3.073740944116228,1.5603519630851699,1.3689843021612527,2.5047638421969225,3.2588993261932524,3.258957548017209,0.06302276408943701,-0.12129179493091045,-0.11467456992561458,-0.5709413016964557,3.2590594362091343,3.2591939758293598,75907273
0,0,0,0,0,0,0,0,0,0,0,0,3.1052511459888392,0.8910110582126448,2.4511541308348335,0.8660665471633132,3.2594028662923415,3.2587938974850053,-0.24844235759286373,-0.17749473780330868,-0.10915057768232556,0.379166088004838,3.259498460233028,3.2594252895623788,75908267
0,0,0,0,0,0,0,0,0,0,0,0,2.4039385919497716,0.9404484677849373,0.07675170621296241,0.19986293314253487,3.2585724185195466,3.2583005855441787,0.7475103911769856,0.014975597259473472,-0.11537716572012492,0.6564243145494836,3.259195156001467,3.2589988540409625,75909324
0,0,0,0,0,0,0,0,0,0,0,0,0.24664023478510794,-0.9098410975743648,-1.7542613213373803,-2.2893033610943987,3.2586038897757397,3.258335990707396,-0.3439462118084683,-0.22748879521951618,-0.13558053202397014,0.33858390314387116,3.2588371704622707,3.2587427566936915,75910381
0,0,0,0,0,0,0,0,0,0,0,0,-0.844727855292303,-1.3027703526938381,-2.3031263235958006,-2.252582305977619,3.258677453837091,3.25896580922196,0.5175196310901202,-0.15338736216871288,-0.13637754158705967,0.6549219554569667,3.2594095539342822,3.259206564331837,75911438
0,0,0,0,0,0,0,0,0,0,0,0,-0.8929736844269853,-0.5407989192961358,-1.1109754694671,-1.3111605895949112,3.258871395453381,3.2584606955600615,0.2598306250370294,-0.15882756219238783,-0.11047355061454184,1.4678205690170012,3.259319860854132,3.2591994832991933,75912494
0,0,0,0,0,0,0,0,0,0,0,0,-0.4028072956570739,-0.1888645158844609,-0.8731062737830011,-1.5387406514573874,3.258459515387954,3.2586538503949463,1.7971448418074656,0.05656525570932098,-0.11927448740893451,2.2960803027248744,3.2591593574475475,3.258816320755043,75913551
0,0,0,0,0,0,0,0,0,0,0,0,-0.6802504158318537,-0.45210623170211695,-0.9922651043254261,-1.3452652031499388,3.259077925572148,3.2587923239221954,1.1499455392295763,-0.3857573492237746,-0.13615094854246956,0.9543095891844736,3.259347398203301,3.2593230079797513,75914608
0,0,0,0,0,0,0,0,0,0,0,0,-0.061291451608115624,-0.48810895539628923,-1.079300043499475,-0.9068143495099961,3.2589103411329194,3.2590346525948823,-0.5928704730117884,-0.2188912414182712,-0.13935865632994845,-0.25462291891848077,3.2593879174456495,3.2592498373091026,75915665
0,0,0,0,0,0,0,0,0,0,0,0,0.708510817111828,-0.1348932784668539,-0.07674777230593828,-0.07027216795351122,3.2588898848163943,3.2585326860586026,-0.8422274639877633,-0.17033778075430164,-0.10507898391234682,-0.4984161851902229,3.2593123864307865,3.258999247431665,75916721
0,0,0,0,0,0,0,0,0,0,0,0,1.4616144372957274,-0.5406380224988486,0.34572315761126965,1.1616493060170776,3.258871002062678,3.25887296901619,0.263023777368519,-0.1448448830658058,-0.13014229895380722,-0.41506967724200217,3.259269113453521,3.2590712379302067,75917778
0,0,0,0,0,0,0,0,0,0,0,0,-1.0866973622676566,1.3633828119495883,-2.276727840510349,1.414940597407889,3.2585846136313217,3.2586691926323406,-0.5144417422344377,-0.17786924575200624,-0.14948020571234294,-0.284999762177439,3.258981938240759,3.259054322130003,75918835
0,0,0,0,0,0,0,0,0,0,0,0,0.29683846197586794,-0.34288208995844,0.15416430880597937,-0.2643361287517701,3.2586743067114714,3.258639294938957,-0.25964612479759747,-0.03581783006403805,-0.13503607929182995,-0.6666945656173903,3.258837563852973,3.2592423628857565,75919892
0,0,0,0,0,0,0,0,0,0,0,0,-0.14627210453416162,0.3369312688030325,0.26149781483385737,0.5774184796116925,3.259127492800652,3.2584996412396,-0.4900330293217932,-0.20966150875824793,-0.1596096229087857,0.7074880012855531,3.259321827807644,3.2588572333880936,75920948
0,0,0,0,0,0,0,0,0,0,0,0,0.936660902102101,0.43090680013976096,-0.17280591402124332,0.3094474207696224,3.259052355176491,3.2589957069153437,1.7933069221147206,0.0033461813147284167,-0.14190271400245594,1.8572470733221855,3.2592805217838907,3.2593894910084593,75922005
0,0,0,0,0,0,0,0,0,0,0,0,0.7244883804903484,0.21632908777345272,-0.0636038021569016,0.024159696598016808,3.258881230220941,3.2586632917718044,1.0836721877660975,0.02398306417263319,-0.12781067226060297,0.1320762076468715,3.2590952347630537,3.259163684745274,75923062
0,0,0,0,0,0,0,0,0,0,0,0,1.4437623672202071,0.13793064808018782,-0.5487402974057553,-0.6735895244585901,3.2588257621319006,3.2586601446461847,1.6255497843682507,-0.3894363390727447,-0.1284452114635958,-0.3378824875214681,3.259338743607848,3.259507114828481,75924119
0,0,0,0,0,0,0,0,0,0,0,0,-0.8679721317258038,-1.0683590612839533,-1.32615664317091,-1.5608393741654603,3.2586286733899916,3.2588757227511076,-2.008372045561319,0.8398765611501409,-0.11362028284314665,-0.6112311972655293,3.25939775221321,3.2591373275682125,75925175
0,0,0,0,0,0,0,0,0,0,0,0,0.07981661317546525,-0.7800434088758718,-1.3689968906637298,-1.0641017871024354,3.258507902444351,3.2585661242683077,-0.6327394405292798,-0.22025709393705056,-0.15201285505448042,-0.5439216546918935,3.2591027091863998,3.2591687988244056,75926232
0,0,0,0,0,0,0,0,0,0,0,0,0.7618416144659059,-0.3391161607642365,-0.907107425583294,-0.7833888034091954,3.258852119308963,3.2583316634096695,0.04497478544411486,-0.16849356514138758,-0.09297631895259843,0.12808525897088752,3.259434730939237,3.259252984434722,75927289
0,0,0,0,0,0,0,0,0,0,0,0,-0.42867470129426727,0.03564985223410752,-0.770377405926872,-2.2398309397495915,3.2586152981061094,3.2588572333880936,0.6284817729570594,-0.09523713531936827,-0.13610885573731132,0.10923200955772512,3.2591983031270866,3.25928366890951,75928346
0,0,0,0,0,0,0,0,0,0,0,0,0.4006039143328564,-1.0457705671513755,-0.79886990772127,-1.159362919254651,3.258641261892469,3.258955581063697,0.3170209785724853,-0.19734719960060113,-0.10676033577446171,-0.41997211217547803,3.2590661238510754,3.259052355176491,75929403
0,0,0,0,0,0,0,0,0,0,0,0,-0.6756756753534883,-0.4540743653862912,-1.3957785362933322,-1.4798425888827547,3.259170372387215,3.2589083741794074,0.017533030215863013,-0.29868346437018684,-0.14115999235629945,-0.052274936708800394,3.2594866585119555,3.259435911111344,75930460
0,0,0,0,0,0,0,0,0,0,0,0,-0.21207378054544693,-0.4906553734130112,-0.5753783554289764,-0.7565332003275393,3.2587758015126944,3.2586211989666456,0.28635381297514595,-0.09605342102687608,-0.1347461503441513,0.07571276136788861,3.2592639993743893,3.2594563674278696,75931517
0,0,0,0,0,0,0,0,0,0,0,0,-0.09865727408615041,-0.334341577809045,-0.44877263888986574,-0.45239458708698593,3.2587191532515467,3.2586428354552783,-0.38065035112504375,-0.005636108593476843,-0.14170641204195164,0.35572865673645215,3.2592860292537242,3.2588977526304426,75932574
0,0,0,0,0,0,0,0,0,0,0,0,1.0304184949896924,-0.01744569747992724,0.03481704411709834,-0.08854201895499454,3.259027571562239,3.2587769816848016,0.1549731200901413,-0.0881797061180718,-0.1302740848391157,-0.7277499828040579,3.2591270994099495,3.2591432284287487,75933631
0,0,0,0,0,0,0,0,0,0,0,0,1.0376596376490161,0.13682167969008444,-0.15215486909805168,-0.14740270941289774,3.2588548730438793,3.2585177372119114,0.007381976530787531,-0.6626571968385215,-0.13472884115324513,-1.068424364140554,3.2589693497382815,3.259234101681006,75934688
0,0,0,0,0,0,0,0,0,0,0,0,1.0981599805545783,-0.07234730390874193,0.26611779524300044,-0.4552415556003518,3.258472497281134,3.2583241889863235,-1.1089617024614458,-0.26758238882808555,-0.12013286592160057,-0.5105577958295102,3.259219152834314,3.2589709233010913,75935745
0,0,0,0,0,0,0,0,0,0,0,0,0.6040872221097019,0.15822449424558807,0.4646337586204718,-0.6166316648282606,3.2588371704622707,3.2589481066403514,-0.5774822089054833,-0.2567255922228804,-0.14710963333959975,0.20425159981865879,3.2592537712161267,3.2591605376196546,75936802
0,0,0,0,0,0,0,0,0,0,0,0,0.607271326455036,0.6614160491724073,-0.07760418386509225,0.0018764736505119384,3.259118051423794,3.258935124747172,-0.38968574877807477,-0.027152613061977988,-0.13104985130427493,-0.42883953199857855,3.259383196757221,3.2589917730083195,75937859
0,0,0,0,0,0,0,0,0,0,0,0,-0.5065853365165396,1.6704588735650627,-1.2497062742359963,3.074748811095811,3.258639294938957,3.2587942908757075,-0.7776429388097452,-0.0869645222383168,-0.12699202620888067,-0.47071833261469986,3.2590539287393003,3.2593253683239656,75938916
0,0,0,0,0,0,0,0,0,0,0,0,0.8681672535142008,0.6843125682249745,1.816293134247438,1.2275154981035588,3.2587710808242654,3.259020883920298,-0.30623813941933387,-0.2436012916089644,-0.1394452022844794,0.15882795558309024,3.2594288300787007,3.259373755380363,75939973
0,0,0,0,0,0,0,0,0,0,0,0,2.126190593980622,1.0430498770534846,1.6785371516391219,1.5434491447745733,3.259026784780834,3.258920962681885,0.43767115326775946,-0.2616012765885921,-0.10418441345505874,0.7474108633292751,3.259474070009478,3.2594827246049314,75941030
0,0,0,0,0,0,0,0,0,0,0,0,3.2532718721952287,0.4459626491025268,0.575369307442821,0.6707791412805487,3.259090514074625,3.2582907507766183,1.134502593815636,-0.1531890932546965,-0.11207701111757888,-0.5229637650208193,3.2592573117324486,3.2590397666740136,75942086
0,0,0,0,0,0,0,0,0,0,0,0,2.762192030214313,-0.7699183189771555,-0.9958929533830825,-0.5438118986859201,3.2585067222722435,3.2586778472277933,0.4974181529782001,-0.16703998649597004,-0.1296159421939781,0.1527406278539452,3.2590043615107964,3.259073598274421,75943081
0,0,0,0,0,0,0,0,0,0,0,0,-0.27199780607197355,-1.365137334482352,-1.5260227234390642,-1.7626767352434078,3.2591137241260677,3.2587101052653913,1.9744771092506777,-0.24066266306193626,-0.11048574572631666,0.6714479054746515,3.259435124329939,3.259189648531633,75944076
0,0,0,0,0,0,0,0,0,0,0,0,-1.2314997591376018,-1.616133977905986,-1.9542281096253524,-1.9426561287231598,3.2588678549370593,3.2584315846480827,0.6370513960184331,-0.14811513997496842,-0.08782526109519732,2.010039235358147,3.2593654941756123,3.259322221198347,75945070
0,0,0,0,0,0,0,0,0,0,0,0,-1.1948298448121362,-0.8963147516625822,-1.4031797889685378,-1.232231859234793,3.258610577417681,3.258618445231729,-0.022709658468921,-0.27880267844232065,-0.11930713883723483,0.15318988003610134,3.259324188151859,3.2589036534909788,75946065
0,0,0,0,0,0,0,0,0,0,0,0,-0.13851404649186688,-1.0645923453083448,-1.8117860569698878,-1.0669330199877045,3.259002001166582,3.2591542433684157,1.0748208969617958,-0.17382715628470852,-0.1480651793557619,0.941953580612371,3.2592124651923733,3.2591503094613916,75947059
0,0,0,0,0,0,0,0,0,0,0,0,0.8814036704783047,-0.3260728986350177,-1.6602039647345501,1.5308189428828887,3.2585728119102493,3.2586825679162224,1.3645051556235737,-0.11027685526333514,-0.12909784663889962,1.3286578212568545,3.259472889837371,3.2595393728660786,75948054
0,0,0,0,0,0,0,0,0,0,0,0,1.2165009518266858,-0.5328189888976799,-0.5706781233165411,-1.4522792759274572,3.259138901131022,3.2587537716333594,1.397017323615232,-0.184693787657474,-0.11886496768772217,1.1249605089378962,3.2594233226088667,3.2592108916295635,75949048
0,0,0,0,0,0,0,0,0,0,0,0,0.5052721983518836,-0.024269059213287734,-0.6337315718807663,-0.4750928372255369,3.259051175004384,3.258706958139772,0.7595095943819993,-0.2829777339670341,-0.13465449031048896,0.561906297434127,3.259273047360545,3.258902079928169,75950043
0,0,0,0,0,0,0,0,0,0,0,0,0.5761556954569453,-0.18269103559148733,0.2502964079733381,-0.31681090793739647,3.258729774800512,3.2587636064009198,-0.456346590083431,-0.21019848706704225,-0.14056636578635762,-0.27746278970990057,3.25915817727544,3.2591227721122227,75951038
0,0,0,0,0,0,0,0,0,0,0,0,0.4627328947464102,-0.09921313514866056,0.03654402930069319,-0.40350831788877456,3.2585787127707855,3.2586038897757397,0.3024981740114896,-0.41048116808905216,-0.13488855777842493,0.13538737718908514,3.2592820953467,3.259029145125049,75952032
0,0,0,0,0,0,0,0,0,0,0,0,0.49091147076028235,0.034625856235725436,-0.24629365757628174,-0.3650205451274568,3.2588332365552466,3.2588863443000724,0.5483606753779263,-0.12778392169283886,-0.14399948644631938,0.11144561904020536,3.2591849278432043,3.259281701955998,75953027
0,0,0,0,0,0,0,0,0,0,0,0,1.9916789044951086,0.2362417383482144,0.24511466564114875,0.28852257591755104,3.2587836693267427,3.2588493655740454,0.1838460306937731,0.1461151416438987,-0.12447511249483972,0.21470045026546122,3.2590932678095417,3.258968562956877,75954021
0,0,0,0,0,0,0,0,0,0,0,0,2.5310269988807437,0.34241395502256805,0.3868466480787573,0.6776969167824884,3.258607036901359,3.2588033388618634,-0.5699940168850441,0.1454117590679835,-0.12223081853757124,-0.5554928488126814,3.259235281853113,3.2595039677028614,75955016
0,0,0,0,0,0,0,0,0,0,0,0,1.4165432711295212,0.8323112645520286,0.29143484728751745,-0.08914705385530637,3.259161717791762,3.258575959035868,0.13170406004238844,-0.17549277251872689,-0.13602388334559,0.709918369045063,3.2592242669134457,3.2592738341419496,75956010
0,0,0,0,0,0,0,0,0,0,0,0,0.08688427053502447,-0.025303283369932573,-0.5196545624321177,-0.07208766604514909,3.2590102623713326,3.2587415765215844,0.7624981835482338,-0.13724103417885708,-0.13848965626831727,0.7461870248540668,3.25933913699855,3.2590004276037723,75957005
0,0,0,0,0,0,0,0,0,0,0,0,0.4424815347768705,-1.9494731962052818,0.5687154971022006,-1.2127310887254583,3.258976037380223,3.2585047553187314,0.1880309209860469,-0.1474274930271498,-0.14245110064162025,-0.5553807324624935,3.2595067214377784,3.2591719459500244,75957999
0,0,0,0,0,0,0,0,0,0,0,0,-0.02325725832668046,-0.2910489310084499,-1.352010280133519,-0.6625875666841943,3.258675486883579,3.258446926885477,-0.35170269628795336,-0.12044757848353128,-0.12931814543225112,-0.24330388823793986,3.2585999558687155,3.2592384289787324,75959056
0,0,0,0,0,0,0,0,0,0,0,0,0.8283104811084844,-0.4173839947443002,-0.9386577533075515,-0.9349020522716107,3.2589032601002765,3.2585665176590104,0.1251670867403849,-0.16488735257236392,-0.14063520915927996,0.027614060355908913,3.259111363781853,3.2591054629213168,75960113
0,0,0,0,0,0,0,0,0,0,0,0,1.9981611964894768,-0.3866625412300278,-0.6458314831055979,-0.2558676071009167,3.2586542437856485,3.2588749359697022,-0.2883349285524998,-0.15081183324001232,-0.13610688878379926,0.12254317075528749,3.25944338553469,3.259588940094583,75961169
0,0,0,0,0,0,0,0,0,0,0,0,1.7195552133983627,-0.029076686987481948,0.39837968330141105,0.5188768290134465,3.258881623611644,3.2585075090536484,0.8617416097809802,-0.1105400336432497,-0.14032167676945648,1.5574491330920615,3.2595413398195907,3.2589693497382815,75962226
0,0,0,0,0,0,0,0,0,0,0,0,1.2749269455584222,0.07458687717758145,0.006713212336684744,0.5852095824729899,3.2592195462250166,3.259153063196309,2.4102611673189602,-0.03124899044620877,-0.14077958354706566,2.4325577655503468,3.259106643093424,3.2591904353130383,75963282
0,0,0,0,0,0,0,0,0,0,0,0,0.7692881070718892,-0.6105809224344398,-0.5208996440052561,-0.4267604621363237,3.258930404058743,3.258609397245573,2.698337244789272,-0.4353127760067911,-0.1512225331333319,1.3210693146073,3.2598096322786367,3.2594583343813817,75964339
0,0,0,0,0,0,0,0,0,0,0,0,-1.611420763900371,-1.0596781086537967,-1.1884108887208569,-1.5287646566348856,3.258727021065595,3.2586656521160187,1.6504781663987833,0.024312332190553208,-0.11323003926635256,1.1230576781103228,3.259313173212191,3.259307665742357,75965395
0,0,0,0,0,0,0,0,0,0,0,0,-0.6759022683980785,-0.47640990929721705,-1.5163197417640377,-0.7213388945268266,3.25898705231989,3.2588769029232143,0.022808006144524353,-0.15516470136221663,-0.08864980800745581,-1.5311155594725083,3.259069664367397,3.2588088463316973,75966452
0,0,0,0,0,0,0,0,0,0,0,0,0.8690795265530975,-0.7379679129085437,0.6178657314617313,0.3937604896736729,3.2588879178628822,3.25881907448996,-1.2816350438159756,-0.13449870759233326,-0.13009863258583934,-0.958407540131514,3.2589603017521265,3.259029145125049,75967509
0,0,0,0,0,0,0,0,0,0,0,0,0.4430165461321528,1.850165647288042,-1.972485765515061,3.0202150249737527,3.258500428021005,3.2582761953206294,-0.05346573036500577,-0.13615724279370817,-0.13988934038750414,-0.26620748832315067,3.2594760369629903,3.2593336295287165,75968565
0,0,0,0,0,0,0,0,0,0,0,0,0.7127523556652492,0.13023710611308884,0.8898847806316352,0.14235904721725548,3.258963842268448,3.259161717791762,-0.3708643640118079,-0.18946089618931963,-0.12008683920941819,-0.11804671502670229,3.258813960410828,3.2593336295287165,75969622
0,0,0,0,0,0,0,0,0,0,0,0,0.21002146125095622,-0.007250584036181454,0.20889282332573214,-0.03412979055998212,3.2590023945572844,3.2585008214117073,-0.2764844270329984,-0.27347892206656,-0.14018556358642142,0.06401332187811397,3.259079105744255,3.259037012939097,75970678
0,0,0,0,0,0,0,0,0,0,0,0,0.5891340481202659,0.10752351373714372,-0.43292725478735616,-0.7497778951856965,3.2589878391012954,3.2587116788282007,0.08089253674656591,-0.20798094367753786,-0.13305693066798815,-0.6762531729046312,3.2593847703200303,3.259582252452642,75971735
0,0,0,0,0,0,0,0,0,0,0,0,-0.3988214610602213,-0.5805844879847154,-1.1202201509738148,-1.5966477628526405,3.25907989252566,3.2590130161062496,0.1841186504505456,-0.2270902904379714,-0.11413601805401064,-0.3436374001070738,3.2593182872913227,3.259436697892749,75972791
0,0,0,0,0,0,0,0,0,0,0,0,-0.3805728531566683,-0.7189305566466517,-1.0311989821432808,-1.4422257831365803,3.258963842268448,3.2589827250221637,0.8339371483251034,-0.3047656780202005,-0.13644205766225548,0.9516770186039232,3.2593961786504004,3.2592754077047594,75973848
0,0,0,0,0,0,0,0,0,0,0,0,-0.46116090549956623,-0.6313688673220714,-0.8124399200010204,-1.361757321567216,3.259138901131022,3.2587333153168334,-0.23817564704127872,-0.5249149829047898,-0.13497982442138487,0.436566905566085,3.2590299319064533,3.259199089908491,75974904
0,0,0,0,0,0,0,0,0,0,0,0,1.2377228066590793,-0.33272946271055487,-0.5670986613152815,0.16129372850581747,3.2588918517699064,3.258660538036887,0.026670316060819155,-0.28081723222937965,-0.13252900034534934,0.14426423838904362,3.2588918517699064,3.259088547121113,75975961
0,0,0,0,0,0,0,0,0,0,0,0,1.7705449426823785,0.03977534053031689,-0.31924481621322826,-0.2618184282563243,3.2586857150418416,3.258755345196169,-0.4683760843725305,-0.15362221641805365,-0.1362024827244857,0.9083060870535478,3.259149522679987,3.258664471943911,75977018
0,0,0,0,0,0,0,0,0,0,0,0,2.2170748611777853,-1.0703563058801062,1.3489347516220511,-2.383109341038387,3.2589197825097775,3.2587608526660024,0.9772729846564513,-0.06316556491441308,-0.1288775478455481,0.962605018926265,3.259224660304148,3.2588666747649517,75978075
0,0,0,0,0,0,0,0,0,0,0,0,2.326322606363607,-2.5569455453092504,0.04359398407864381,-0.536276106390489,3.258913094867837,3.2585067222722435,-0.42152089137087956,-0.18582832644323424,-0.13008643747406454,-0.7811413623263075,3.259168405433703,3.259307665742357,75979131
0,0,0,0,0,0,0,0,0,0,0,0,-0.03706723893490302,-0.10913012136580007,-0.07693541967098948,-0.29711501563966464,3.258952433938078,3.2589366983099817,-0.5359550995773196,-0.005473244842677693,-0.12931578508803668,-0.1274888786660288,3.2594618748977036,3.2592773746582715,75980188
0,0,0,0,0,0,0,0,0,0,0,0,0.9338379304215825,0.13800067162521737,0.15930356494230807,0.5707300508892597,3.258761246056705,3.2585968087430963,0.040749769300194895,-0.19692233764199465,-0.1325632253364593,-0.8799182271859916,3.2592167924900997,3.2591566037126305,75981245
0,0,0,0,0,0,0,0,0,0,0,0,1.7791031574133822,0.3762884350166839,0.5087808500267088,0.8146924751630396,3.2588989328025497,3.2588863443000724,-0.6709656084734926,-0.10979298469936664,-0.12926700464093738,-0.699068260081799,3.2592639993743893,3.2592702936256277,75982302
0,0,0,0,0,0,0,0,0,0,0,0,1.082715461577828,-0.21952892774688335,-0.032382742450564196,-0.5041648035245899,3.258871002062678,3.2584437797598573,0.12548770016285182,0.016082598696064793,-0.12376897618400766,-0.19709267581613968,3.2588399241971877,3.2593753289431726,75983358
0,0,0,0,0,0,0,0,0,0,0,0,1.4453615004255176,-0.25689475022491814,-0.40742766945691933,0.2319978394505786,3.25846541624849,3.25817194678449,1.39760544271534,-0.4502875864848597,-0.1305380500004351,-1.7431716374363466,3.2595138024704218,3.259139687912427,75984415
0,0,0,0,0,0,0,0,0,0,0,0,1.2871606096220742,-0.3047908550251549,0.20885702477181253,0.5677615246488481,3.258907587398003,3.2588694284998687,0.7332299152886766,-0.21837707977021692,-0.1331820289113556,-0.2910729278412971,3.259353299063837,3.2589119146957293,75985472
0,0,0,0,0,0,0,0,0,0,0,0,1.2667141278641376,-0.34144227998760696,-1.044128554359502,-0.23781569454857046,3.2586833546976273,3.25886313424863,-0.24335974971768254,-0.11455576593348574,-0.1023720624890402,-0.4352152151125926,3.258883590565156,3.259195942782872,75986529
0,0,0,0,0,0,0,0,0,0,0,0,1.5444802218055989,-0.543451159411807,-0.24662961323614277,-0.37366648598509855,3.2584555814809297,3.258651883441434,0.22796794509505572,-0.2147232669262012,-0.14270877155170103,0.08883588180969736,3.258967776175472,3.2593363832636335,75987585
0,0,0,0,0,0,0,0,0,0,0,0,2.462362225337294,-0.7102338683883986,-0.677655610758735,1.182238195209288,3.259051175004384,3.259138901131022,0.49728597370218913,-0.09400857615573122,-0.11571194120787873,0.1618877484664617,3.259494526326004,3.2597490501104653,75988642
0,0,0,0,0,0,0,0,0,0,0,0,0.09143344061773306,0.12203805709338868,-0.1000542044704204,-0.6112473262843282,3.2591259192378423,3.258959514970721,0.9134870426043322,-0.1223846343022149,-0.109098650109607,1.0210923816075779,3.259198696517789,3.2591156910795798,75989699
0,0,0,0,0,0,0,0,0,0,0,0,0.6607142401593017,-0.2577169367929622,-0.5504334509889425,-0.9468914207090641,3.2590374063297993,3.258819467880662,0.5153178233287125,-0.16055297381317302,-0.13533544961636657,-0.5842933755270691,3.2592852424723198,3.258948500031054,75990756
0,0,0,0,0,0,0,0,0,0,0,0,-1.2304671085437666,-0.8841810088373433,-1.2303962982173322,-1.7384053156859058,3.259030718687858,3.2586381147668497,-0.23608988953708282,-0.10890234814910271,-0.13215921308508075,0.15452072078236587,3.259468169148942,3.259330089012395,75991812
0,0,0,0,0,0,0,0,0,0,0,0,-0.6802260256083041,-0.7288152848261934,-0.8548615997864722,-1.1606201959395641,3.2590539287393003,3.2587962578292196,0.08683391652511555,-0.10955458993370412,-0.12456795270060929,0.07530363503737868,3.259186501406014,3.259142048256641,75992807
0,0,0,0,0,0,0,0,0,0,0,0,-0.10628000572681495,-0.37625066950925223,-0.27947026246431617,-0.9406656194526695,3.2586691926323406,3.2586652587253164,-0.02510186733029691,-0.11418125798478818,-0.15408209014917493,-0.5078406462479408,3.259256918341746,3.2589044402723832,75993802
0,0,0,0,0,0,0,0,0,0,0,0,-0.39696937763325896,-0.41766723605003786,-0.34046903138983625,-0.5723740306346453,3.2589622687056385,3.2586428354552783,-0.8735409705091679,0.07508097589981268,-0.1434770635935144,-0.0465432341746371,3.259382803366518,3.259447319441714,75994796
0,0,0,0,0,0,0,0,0,0,0,0,-0.21475631174520393,0.21187551163143056,0.03362270994457125,0.07938112966789361,3.258821434834174,3.258924109807504,0.4455712253536254,-0.3316122331157008,-0.1334719578590343,1.3335268179806252,3.25940916054358,3.259278161439676,75995791
0,0,0,0,0,0,0,0,0,0,0,0,1.429577878663287,0.39850360137267127,0.5828630069330939,0.33357525272074373,3.259136540786807,3.258767933698646,1.2448962861175876,-0.26846515756430117,-0.157130081311474,2.5215093042265537,3.2593072723516547,3.2592175792715046,75996785
0,0,0,0,0,0,0,0,0,0,0,0,2.318049599891853,0.11175954482073125,0.07160143513696612,1.5189696215354944,3.258791537140791,3.258345432084254,1.7407011438251905,-0.08676625332430045,-0.1531127754584283,0.5811368085309039,3.2590527485671936,3.259220726397124,75997780
0,0,0,0,0,0,0,0,0,0,0,0,0.19882398829746104,0.12100658667166074,-1.7389666842182498,0.4149780172083398,3.2589248965889093,3.258937091700684,0.014709665144642012,-0.02244962721462574,-0.1467591222237494,0.850001651048857,3.2594866585119555,3.259292323504963,75998774
0,0,0,0,0,0,0,0,0,0,0,0,-0.6701583707521402,-0.4232242731123296,-0.8972695108973396,-0.5843991976260182,3.2589681695661747,3.2590393732833114,0.62974022981408,-0.25152300018346313,-0.1031057361490412,-0.07793109153879779,3.2592407893229467,3.2592868160351296,75999769
0,0,0,0,0,0,0,0,0,0,0,0,-0.9032211188341521,-0.634700886571513,-1.0582536409203578,-1.7447003537059251,3.2589036534909788,3.2584547946995253,-1.1040274028810744,-0.12851641518073262,-0.15907264459999138,-1.2450996691107354,3.2592699002349255,3.2590397666740136,76000764
0,0,0,0,0,0,0,0,0,0,0,0,-0.4418682386718081,-0.7085505495727716,-1.1869215115215195,-1.306139744060009,3.25883048282033,3.258470136936919,-0.4178505561173625,-0.1546706026399854,-0.15288264189751646,-0.3912014831544737,3.259210498238861,3.2590118359341425,76001758
0,0,0,0,0,0,0,0,0,0,0,0,0.08021865847333173,-0.759252316862621,-0.7110159291047965,-0.8665319283642683,3.2586628983811017,3.258666045506721,-0.6813330270448955,-0.09992084502230227,-0.13680830440620234,-1.6226044681792817,3.259273047360545,3.259064550288266,76002753
0,0,0,0,0,0,0,0,0,0,0,0,0.4497580825994113,-0.33755282611284565,-1.2840638380126759,-1.0481206832075933,3.258695943200104,3.258780522201123,0.5407273221882966,-0.251696092092525,-0.1545211141730683,-0.34783055160409826,3.2593285154495852,3.258932371012255,76003747
0,0,0,0,0,0,0,0,0,0,0,0,-0.007730127302423394,-0.94956726426688,-1.2993069409497904,-0.8719426240852624,3.259062976725456,3.2586636851625066,1.4883256659895976,-0.5822611191584014,-0.13957620138838306,-0.04467856224519756,3.2590893339025175,3.2590031813386893,76004742
0,0,0,0,0,0,0,0,0,0,0,0,-0.16790426586917231,-0.9294823085644612,-1.3330425540259545,-0.8689009271742018,3.258775408121992,3.2586904357302706,-0.25846752625316693,-0.047719078984150766,-0.12323239126591579,-0.47774586412261294,3.25900160777588,3.2593631338313975,76005736
0,0,0,0,0,0,0,0,0,0,0,0,-0.8579213926698437,0.11319817461945708,-1.1500073015698553,-0.03644292789017294,3.2584921668162545,3.259059042818432,0.27862407906342496,-0.13055024511220992,-0.14987398980545877,-0.10691887222753431,3.2595893334852852,3.2591499160706894,76006731
0,0,0,0,0,0,0,0,0,0,0,0,1.803855693799936,-0.4568981238482146,1.3634162501592935,-0.7753711075033077,3.2589178155562655,3.2590661238510754,-0.062099476110872756,-0.20127205863857967,-0.11231776622745587,-0.49626197770380703,3.2594268631251886,3.2591507028520943,76007725
0,0,0,0,0,0,0,0,0,0,0,0,1.5858586294482504,-0.08430952838772873,-0.3799166774650427,0.49810461975391146,3.258767933698646,3.259025604608727,-0.06848774772736402,-0.11847511750163048,-0.12955811376072332,0.11670721968498465,3.2588682483277616,3.2589654158312573,76008782
