0,0,0,0,0,0,0,0,0,0,0,0,0.41188675306877526,0.1740926950088376,0.1879664049108511,-0.4433316520847859,3.258553535765831,3.2585684846125225,1.0848035794262385,-0.18614421917727222,-0.16307146109002363,0.46101771128388774,3.258974463817413,3.259231347946089,2239208
0,0,0,0,0,0,0,0,0,0,0,0,0.8078301677501402,0.021597149562495893,0.00920534243647366,-0.1001828432301096,3.258468169983407,3.2585728119102493,1.0926706066931016,-0.03274505528748694,-0.16027563336797157,0.665487642942386,3.2591542433684157,3.259031112078561,2240202
0,0,0,0,0,0,0,0,0,0,0,0,1.9872320159950274,-1.212866021736386,-0.31473734554497546,0.4146873014792563,3.2588898848163943,3.258991379617617,1.3066550858801707,-0.17086649785834523,-0.17118121042027595,0.6057024843338112,3.259166045089488,3.259113330735365,2241197
0,0,0,0,0,0,0,0,0,0,0,0,-0.062302072322615656,-0.26845925670376497,-0.5765423985174177,-0.861278982314942,3.2586762736649835,3.2586802075720076,1.1658487517653409,-0.17656830269912513,-0.14312458552415197,0.6740867703064406,3.258856446606689,3.2590802859163626,2242191
0,0,0,0,0,0,0,0,0,0,0,0,0.04494331418792178,-0.560034544472044,-0.9062628157452125,-0.7295548593467306,3.2588151405829358,3.259097201716566,0.7793101286065731,-0.1356005949497932,-0.16358522934737554,0.082157287854825,3.259525210800792,3.259162111182464,2243185
0,0,0,0,0,0,0,0,0,0,0,0,0.00227655199486637,-0.30450171285888106,-0.7046292310511149,-0.8101173412939717,3.2588442514949145,3.2586951564186997,0.5057261712224688,-0.13163324971595403,-0.15360215349223058,0.13288934622876003,3.2593379568264433,3.2592439364485664,2244180
0,0,0,0,0,0,0,0,0,0,0,0,-0.43816800572490755,-0.23343843620281648,-0.7131839052657968,-0.9415055086023221,3.2586621115996968,3.2585728119102493,0.6563460297997032,-0.1501253664643009,-0.1173665425022295,0.5731277672204693,3.2591487358985822,3.258828515866818,2245174
0,0,0,0,0,0,0,0,0,0,0,0,-0.15883149609941197,-0.3014403464127,-0.9611667825182416,-0.5619125916853656,3.258792717312898,3.2592049907690273,0.7656571108886135,-0.049482649503070054,-0.11288896952736013,0.22029328588167257,3.2593580197522662,3.2592962574119873,2246168
0,0,0,0,0,0,0,0,0,0,0,0,0.4553595728110758,-0.05713134493009387,-0.1710411633302168,-0.4661817510344685,3.259164078135976,3.2587152193445226,0.7253805906034219,-0.07219584848831277,-0.16053881174788615,0.3970488425551465,3.2591943692200624,3.258935124747172,2247163
0,0,0,0,0,0,0,0,0,0,0,0,0.5771505805433488,-0.1991981028554562,-0.4695405208516742,-0.6418173243781715,3.258883590565156,3.258400506782592,1.192010020257237,-0.492680155358333,-0.12523356976909278,-0.28923225274470477,3.259008688808523,3.2588611672951178,2248157
0,0,0,0,0,0,0,0,0,0,0,0,-0.12208211685205898,-0.2659258205802226,-0.9130554930037846,-0.12935591093968282,3.2587187598608445,3.2590614031626464,-0.3976047036176566,-0.22222404744911758,-0.1620254352123064,-0.656517941536658,3.259359593315076,3.259346611421896,2249152
0,0,0,0,0,0,0,0,0,0,0,0,0.40705158794541213,-0.8640791373347207,-0.17787003253341108,0.47581667611797757,3.258757312149681,3.258697910153616,-0.6008401752519816,-0.10713484372315928,-0.12832444051795489,-0.4060586698125207,3.2593230079797513,3.259261639030175,2250146
0,0,0,0,0,0,0,0,0,0,0,0,-0.5065082319388666,0.6842047791725134,-0.39089385162518636,-0.8941715591158341,3.2590433071903355,3.2588446448856168,-0.4799177741906373,-0.15788814519502462,-0.14260688335977592,-0.633069888719307,3.2592093180667536,3.2590385865019065,2251140
0,0,0,0,0,0,0,0,0,0,0,0,0.36526523414435796,0.03317070402749825,-0.39041194801472995,-0.28186797879552583,3.2588123868480188,3.2588363836808663,-0.22055843121509924,-0.10862854822022297,-0.15511159361739082,-0.2102850330215732,3.259228594211172,3.2595267843636018,2252135
0,0,0,0,0,0,0,0,0,0,0,0,0.7965618844702106,0.02048857456309492,-0.2877338275592122,-0.0937442176037094,3.2587407897401794,3.258797044610625,-0.21090147625225497,-0.04754047960525508,-0.07781543467228826,-0.10890038119559065,3.2593611668778855,3.258967776175472,2253129
0,0,0,0,0,0,0,0,0,0,0,0,0.8651184755704969,-0.02754010290385519,-0.1291434799603796,-0.41064127810493445,3.2591479491171773,3.258789963577981,0.3628950551623172,-0.19197112226141955,-0.15891450153762118,0.17984721420374084,3.25948901885617,3.2593631338313975,2254123
0,0,0,0,0,0,0,0,0,0,0,0,0.8128734365550799,-0.14148257273227843,-0.15810923076978095,-0.12603805375552818,3.2585248182445543,3.2586522768321364,1.169865664227684,-0.2034620646789151,-0.13974968668814738,0.3594922255864412,3.25916958560581,3.2592584919045553,2255180
0,0,0,0,0,0,0,0,0,0,0,0,0.9752367943807594,0.09915530671540577,-0.3582754681438765,-0.4650837975840327,3.258822221615579,3.258643228845981,0.8517616810514547,-0.0646218972947475,-0.15695895635592416,0.818771543356364,3.2589709233010913,3.2589103411329194,2256236
0,0,0,0,0,0,0,0,0,0,0,0,0.47964948173159144,0.08820724346724074,-0.20967645760493964,-0.6338613908125628,3.259025604608727,3.2587368558331553,1.7317404904056177,-0.6127890244470864,0.7722204413676788,-0.9094583284209166,3.259305698788845,3.258898146021145,2257292
0,0,0,0,0,0,0,0,0,0,0,0,0.2984183190367602,0.2782106254351885,-0.2853380781815145,-0.4341310303367412,3.2585177372119114,3.2586455891901958,2.0934860579354835,-0.19129331008116127,-0.16686020694496714,0.6469030793789718,3.2593383502171456,3.259204597378325,2258349
0,0,0,0,0,0,0,0,0,0,0,0,0.8507451594764184,-0.5482812104560387,-0.2057307488597332,-0.3553214973594543,3.2591668318708935,3.2591975163456812,0.6853932124845042,-0.060936219803836324,-0.14813323594727945,0.17944123499885023,3.2593651007849096,3.258993346571129,2259405
0,0,0,0,0,0,0,0,0,0,0,0,-0.18566034861330372,-0.0515090050112015,0.5158846993308901,-1.808987475512919,3.259254164606829,3.258537406747032,0.8131511703909838,-0.1410443354897899,-0.15239759116144075,0.17177483699021778,3.259077138790743,3.259470136102454,2260461
0,0,0,0,0,0,0,0,0,0,0,0,-1.1051961666579444,0.8985248206287408,-0.8072349676173887,-0.20451399141716856,3.258618445231729,3.258658571083375,0.49993349312943136,-0.11445033722523894,-0.1466442521386447,0.1255636245684176,3.259254557997531,3.259279735002486,2261518
0,0,0,0,0,0,0,0,0,0,0,0,0.5775203678036174,-0.006844604831290821,0.02302476442155414,-0.7132865802391267,3.2590138028876545,3.258780128810421,0.6779872391208696,-0.05503535926763526,-0.15142119543805066,0.14357659144122498,3.2596007418156554,3.259151489633499,2262574
0,0,0,0,0,0,0,0,0,0,0,0,0.698257481844125,-0.23451947385304853,-0.7525033059720165,-0.46305036104325786,3.2588167141457456,3.258907587398003,0.6304841316323437,-0.17906908739436714,-0.1531918469896134,-0.01750785321090856,3.2592887829886417,3.2589359115285763,2263630
0,0,0,0,0,0,0,0,0,0,0,0,0.36312322176971695,-0.462879236087708,-0.8723663058717614,-0.3469363745375126,3.2586274932178845,3.258411128331557,0.1626977399227309,-0.1365514202775264,-0.1607988430021814,-0.2583589504193008,3.2590861867768988,3.2591605376196546,2264687
0,0,0,0,0,0,0,0,0,0,0,0,0.2046241408138443,-0.5893126474991617,-0.5932205907369363,-0.8657809455133612,3.2590027879479866,3.2590322922506676,0.452503162920852,-0.07703809464431936,-0.16249317675747593,0.1749502867400988,3.25939775221321,3.2593013714911185,2265743
0,0,0,0,0,0,0,0,0,0,0,0,0.4158501643955903,-0.7271772059413439,-0.7695878707871282,-0.2862472040947919,3.2588769029232143,3.25857949955219,0.3947715037788753,-0.13378942415588188,-0.13037085895190942,-0.057166750093311076,3.25913693417751,3.258894605504823,2266799
0,0,0,0,0,0,0,0,0,0,0,0,0.24425550034707788,-0.5070432432941488,-0.6453346306484496,-0.510992492555677,3.258727807847,3.2583706090892086,-1.2290988956807727,-0.08374894663678964,0.16187752030819896,-0.6917146076815853,3.25914676894507,3.2592077445039442,2267856
0,0,0,0,0,0,0,0,0,0,0,0,0.27109025372150586,-0.6191887043939476,-0.38969833728055203,-0.9911443342142503,3.2588757227511076,3.258967776175472,-0.056953532332603016,-0.11405852008563519,-0.17185351513070046,0.07597200584077904,3.2593123864307865,3.2591837476710968,2268912
0,0,0,0,0,0,0,0,0,0,0,0,1.2433581284711512,-0.644924717536535,-0.2275867495044171,-0.9667269667061528,3.2589787911151396,3.2584075878152357,0.12624891117202178,-0.12462420757105441,-0.07721079316267886,-0.2892629372194931,3.259372968598958,3.2592423628857565,2269968
0,0,0,0,0,0,0,0,0,0,0,0,0.8187034867648466,0.5300188338779013,-1.0902119148030178,-1.1635666923006405,3.2587211202050588,3.258616478278217,0.40498786032055145,-0.09186026952985162,-0.15682126961007947,0.06789608811093427,3.2588796566581317,3.259020490529595,2271024
0,0,0,0,0,0,0,0,0,0,0,0,1.3069320329346694,-0.013846565943547003,-0.5815667845686417,-0.22150374907299863,3.2588112066759116,3.258564944096201,0.4428288987671016,-0.07238546280687604,-0.1430872134074227,0.11273515376271649,3.2594087671528778,3.2593918513526736,2272081
0,0,0,0,0,0,0,0,0,0,0,0,0.6436414770652624,0.009529496375262304,-0.39196702146137014,-0.12205733323780694,3.258609397245573,3.2585161636491016,0.7958258504659951,-0.20775435063294775,-0.13612380458400303,0.8965960260148078,3.259180600545478,3.2590409468461212,2273137
0,0,0,0,0,0,0,0,0,0,0,0,0.6064145215051795,0.047290676509222564,-0.22836212257887392,-0.13176660916407218,3.2587148259538203,3.258669586023043,0.9871455177242181,-0.14992749094098698,-0.12385316179432414,0.48639023141744514,3.2591227721122227,3.2591247390657347,2274194
0,0,0,0,0,0,0,0,0,0,0,0,0.6053315169014355,0.11487165866752369,-0.2102834594587635,-0.5826820472099837,3.258822221615579,3.2588206480527697,0.18553131646291213,-0.16393377350971383,-0.16018869402273822,-0.3810984231350926,3.2594343375485346,3.259415848185521,2275250
0,0,0,0,0,0,0,0,0,0,0,0,0.2795552348560375,0.0873284086380492,-0.12666472514447272,-0.3853926760426373,3.258937091700684,3.258882017002346,-0.1418928792348956,-0.19046286230836657,-0.1236230282334123,-0.2559927053442842,3.259119624986604,3.259267539890711,2276307
0,0,0,0,0,0,0,0,0,0,0,0,0.31464175160428903,-0.1361898942220085,-0.19524531307760631,-0.18540975873586638,3.2587006638885336,3.2587836693267427,1.119157209295894,-0.2715583886573778,-0.07822652795631027,-0.3282105837119321,3.258999640822368,3.259113330735365,2277363
0,0,0,0,0,0,0,0,0,0,0,0,0.29224995282291805,0.05620648338871996,-0.1681591830443362,-0.3863891346918505,3.2589492868124585,3.25877344116848,0.8535693113290442,-0.22514890732156126,-0.07958726639595823,0.30770588013003825,3.259328122058883,3.2593894910084593,2278420
0,0,0,0,0,0,0,0,0,0,0,0,0.3683616123630538,-0.2980780360791726,-0.4089733015267016,-0.13864819272138984,3.258816320755043,3.2586322139063135,1.1070498236477164,-0.1818499662697275,-0.13684606991363404,0.4590904902327645,3.2594591211627866,3.2589988540409625,2279476
0,0,0,0,0,0,0,0,0,0,0,0,0.3210658217746999,0.7739147751229732,-0.4728874889478074,-0.7942574017354728,3.2586986969350216,3.2584142754571763,0.7184746168225546,-0.24968625899389493,-0.16022252562314576,0.1886465774353239,3.2589032601002765,3.2590051482922013,2280532
0,0,0,0,0,0,0,0,0,0,0,0,2.3332970301266944,-0.5185495279490385,-1.469723399844575,0.051398462223823334,3.258877296313917,3.2587431500843937,0.25845021706226073,-0.06453220421459724,-0.15296092664729674,-0.5244956284160172,3.259324188151859,3.2594288300787007,2281589
0,0,0,0,0,0,0,0,0,0,0,0,0.40923018565537755,-0.43668492277680904,-0.6238244204311871,-0.36527310195840623,3.258619625403836,3.25899846065026,0.3085213790561413,-0.17648883777723762,-0.15069578298280037,-0.004575920650472718,3.2592199396157193,3.2588898848163943,2282645
0,0,0,0,0,0,0,0,0,0,0,0,0.11643971400734353,0.004395747708767379,-0.6880537138049261,-0.3700319492855011,3.259227414039065,3.2586636851625066,0.6544593279909287,-0.14350460094268333,-0.16037948851340872,0.6198787116859807,3.259492165981789,3.258999640822368,2283702
0,0,0,0,0,0,0,0,0,0,0,0,0.26351000827670196,-0.13704787934397214,-0.3261437089614521,-0.5689495645701366,3.2587730477777774,3.258839530806485,0.9635487632213549,-0.10496057331092039,-0.18926498761951774,0.7379104778659913,3.259385163710733,3.259167618652298,2284758
0,0,0,0,0,0,0,0,0,0,0,0,-0.28190731786576717,-0.27443368130131734,-0.24648327189484498,-0.7744741767018052,3.258789570187279,3.258614904715407,1.0587261031539563,-0.17241331010023475,-0.15694990836976866,0.5423650076824436,3.259062976725456,3.2590299319064533,2285815
0,0,0,0,0,0,0,0,0,0,0,0,-0.3984599350047034,0.004195118450536543,-0.11710375751301735,-0.6808810211278226,3.258995313524641,3.258614904715407,0.40630729273644595,-0.12156244773417088,-0.14800184345267337,0.2037944798224544,3.2592459034020784,3.2588643144207374,2286871
0,0,0,0,0,0,0,0,0,0,0,0,0.17089324842610934,-0.09405893016564013,-0.39300399935293184,-0.6480254230529574,3.258802945471161,3.259166045089488,-0.43312395013856286,0.5381502196967863,-0.15438814811565257,-0.23156825680354318,3.259263605983687,3.2594193887018426,2287927
0,0,0,0,0,0,0,0,0,0,0,0,0.2954045528655711,-0.12593970607992483,-0.6041678672036966,-0.6474424180319808,3.2588847707372626,3.2584241102247367,1.373518916787972,-0.14989208577776977,-0.1537166301866329,-0.3215717222180035,3.2592462967927807,3.258850545746153,2288922
0,0,0,0,0,0,0,0,0,0,0,0,0.39619046404248043,-0.413821055152542,-0.4053631550506538,-0.025051906711090408,3.2587738345591823,3.2585452745610803,-0.3280032668117603,-0.16645973520991028,-0.1488012133599774,-0.6224707630241826,3.2591939758293598,3.258994526743236,2289916
0,0,0,0,0,0,0,0,0,0,0,0,0.9785825823047855,-0.5883401856827957,1.7149080890307533,-1.6993805646157938,3.258588154147643,3.258609397245573,-0.8175909778584215,-0.1943472021039965,-0.1443110518826308,-0.10921076645979481,3.2589233230260994,3.2591357540054027,2290910
0,0,0,0,0,0,0,0,0,0,0,0,2.1606606674981914,-0.21296992456554467,-0.10027096274745019,-0.3179281375322506,3.2585956285709887,3.2585940550081793,0.06461088235507992,-0.2400241899519193,-0.16281261000783562,0.2679502091348421,3.2592053841597295,3.25894456612403,2291904
0,0,0,0,0,0,0,0,0,0,0,0,0.2729462710554923,-0.12628116920961965,-0.154300028598312,-0.608971954461569,3.25934071056136,3.258981938240759,-0.02207983995435714,-0.19332674662193614,-0.14113442196064258,-0.022669532617274835,3.2593792628501967,3.259156997103333,2292899
0,0,0,0,0,0,0,0,0,0,0,0,0.6420443108134639,0.0033579830358008186,-0.5496482431469253,-0.6420144131200806,3.258792717312898,3.258976037380223,0.12716433133653773,-0.12928824773886774,-0.15657933432809523,0.5339653294045126,3.258959908361424,3.259592087220202,2293893
0,0,0,0,0,0,0,0,0,0,0,0,0.5572021314146676,0.04348973554250425,-0.7290458117778077,-0.46134461895759327,3.2590141962783568,3.2588186810992577,0.6995411157061,-0.09411793877100214,-0.1567669816931464,0.3153006810308315,3.2595684837780574,3.2592014502527054,2294887
0,0,0,0,0,0,0,0,0,0,0,0,0.6481375394031452,0.01963452334815542,-0.40761020274283916,-0.2773494931876055,3.259020097138893,3.258905620444491,0.4476742920487275,-0.15416194846176487,-0.13342121045842295,-0.151137954132313,3.259263605983687,3.2592738341419496,2295881
0,0,0,0,0,0,0,0,0,0,0,0,0.9790660594780516,0.1913212408210326,-0.5513583125303164,-0.2854226571825334,3.258640081720362,3.2586597512554825,0.4665712078298578,-0.13682089290867958,-0.1548153704184735,-0.04936817280866775,3.2588312696017345,3.258933551184362,2296876
0,0,0,0,0,0,0,0,0,0,0,0,0.8361204667234977,-0.01874821409561802,-0.30070824631550863,-0.45233951238864806,3.259023637655215,3.2587211202050588,2.3392380165145417,-0.5606557083911548,0.15072804102039827,-1.2277047190314196,3.2593155335564052,3.2592773746582715,2297870
0,0,0,0,0,0,0,0,0,0,0,0,0.41709091867100223,0.2844946485155402,-0.4207388306544817,-0.40482814369537157,3.258758098931086,3.258942599170518,1.1859348876398668,-0.10572257110149516,-0.12619108273876697,-0.142238669662317,3.2593285154495852,3.259186501406014,2298864
0,0,0,0,0,0,0,0,0,0,0,0,0.7727550593322586,-0.14034960750932782,0.8435504369199797,-0.4380739853470308,3.258723087158571,3.2588296960389247,1.1817641594128798,-0.09194956921929945,-0.1412500788271521,0.2486229239252715,3.259263212592985,3.2590669106324803,2299858
0,0,0,0,0,0,0,0,0,0,0,0,0.07091929565898128,0.0798327421942642,0.7770485254583984,0.4535330597797703,3.2587966512199222,3.2588843773465603,1.359815938450806,-0.1541159217495825,-0.14209704900944817,0.3990098952066773,3.2594894122468725,3.2594752501815853,2300853
0,0,0,0,0,0,0,0,0,0,0,0,0.14689484201608202,0.33862756951183903,0.025140026228431013,-0.2799073195346975,3.2590692709766946,3.258706171358367,0.980060944564455,-0.11273712071622856,-0.1555785483811555,0.24389712141717926,3.2593961786504004,3.2594264697344864,2301847
0,0,0,0,0,0,0,0,0,0,0,0,0.23590420912554372,0.3040178422949126,-0.7813919522037449,-0.4852604133201138,3.258546454733187,3.258698303544319,0.6074495324432292,-0.12488305865324241,-0.1471871313079752,-0.393498884856568,3.2591015290142926,3.2589764307709252,2302841
0,0,0,0,0,0,0,0,0,0,0,0,0.27676963529224813,-0.43539106075657136,-0.4693749033659581,-0.5165770669671377,3.259020097138893,3.25887611614181,-0.3707978809831,-0.19728268352540534,-0.15162929911962736,-0.39079393038677335,3.2594276499065935,3.259258098513853,2303835
0,0,0,0,0,0,0,0,0,0,0,0,-0.10189212583209584,0.07238388924406639,-0.7421417882611498,-0.8514174641868429,3.2590063284643085,3.2586282799992894,0.03509556473440703,-0.09789606307698048,-0.14788185928843728,-0.2563809819675662,3.2591849278432043,3.2588847707372626,2304892
0,0,0,0,0,0,0,0,0,0,0,0,0.257965166326185,-0.5923673263034017,-0.7008027196887398,-0.3064041502957523,3.258554715937938,3.258498854458195,-0.26407767106028446,0.024567642756419508,-0.1657079655775983,-0.07803612685634218,3.2592533778254245,3.258940632217006,2305948
0,0,0,0,0,0,0,0,0,0,0,0,0.2271343501966417,-0.21200572395392941,-0.7496225058582432,-0.7116288318191566,3.2588796566581317,3.25890876757011,1.2333825270393521,-0.16582755635113194,-0.15033386353658001,0.8198856258255989,3.259224660304148,3.259117264642389,2307005
0,0,0,0,0,0,0,0,0,0,0,0,0.2641642170148154,-0.05730404344845336,-0.6702311480320867,-0.45172346254866863,3.2587073515304743,3.258627099827182,0.5932571760722608,-0.8187813781239244,0.21864025815013147,-0.450247854023916,3.2591880749688236,3.2590527485671936,2308061
0,0,0,0,0,0,0,0,0,0,0,0,0.13089092146049994,-0.29940258257419855,-0.6915147652047592,-0.6372315689601383,3.258950466984566,3.2587045977955578,-0.06688900791275595,-0.21552263683350525,-0.16443023257615952,0.384138153092641,3.2592423628857565,3.2591507028520943,2309118
0,0,0,0,0,0,0,0,0,0,0,0,0.27441125803127975,-0.605626953318948,0.7187287472163137,-1.9136722819414473,3.25917115916862,3.258610577417681,0.17025910261381896,0.07117578639695482,-0.1523200931930653,-0.16469813164450306,3.2590621899440513,3.259232528118196,2310174
0,0,0,0,0,0,0,0,0,0,0,0,0.963016898991692,-0.3383254454523856,-0.4027219298746502,-0.08098813068725236,3.2588403175878904,3.2585684846125225,0.5088020931246392,-0.10383508251131564,-0.14926974168655177,0.17953014129759565,3.2591853212339066,3.259136147396105,2311231
0,0,0,0,0,0,0,0,0,0,0,0,0.846776634070472,0.025247815280892285,0.08517774166795512,-0.3001256346852344,3.258813960410828,3.2588056992060777,0.3143463151867765,-0.10690707050646191,-0.1664215763117762,0.0702182734272806,3.2595440935545077,3.2590051482922013,2312287
0,0,0,0,0,0,0,0,0,0,0,0,0.9932167164345641,-0.024248209506059826,0.09733469454463656,-0.2920918097605478,3.2590082954178206,3.25898705231989,0.1603881431088618,0.001099527013245465,-0.1527693453752214,-0.23948799842452984,3.259086580167601,3.2593753289431726,2313343
0,0,0,0,0,0,0,0,0,0,0,0,0.6265805156922954,0.17360292358433288,0.030678180537006917,0.0953697079860816,3.2586483429251123,3.2582104990733263,0.18201519036474112,-0.1471607741309135,-0.14340940039269928,-0.11589644144731061,3.2590747784465286,3.2589461396868393,2314400
0,0,0,0,0,0,0,0,0,0,0,0,0.6237638382630154,0.23445220404293585,-0.22621106221807744,-0.23316502966463917,3.2587148259538203,3.2588698218905714,0.32055638081507454,-0.07443620853855712,-0.17124493971406696,0.02505662739951937,3.259153063196309,3.2588234017876863,2315456
0,0,0,0,0,0,0,0,0,0,0,0,0.7697424733331767,0.08972691175066372,-0.30989470599826646,0.04578359672827682,3.258743936865799,3.2587738345591823,0.03281232509759964,0.11542240565090246,-0.1526485744295805,0.19173980852840047,3.259107036484126,3.2592034172062174,2316513
0,0,0,0,0,0,0,0,0,0,0,0,0.6306104100478184,0.11641178326747217,-0.15219145443337614,-0.39191784762356846,3.2589634488777453,3.258487446127825,2.772919794669127,-0.5118225469377693,0.35252921015372396,-0.3628486350594323,3.259224660304148,3.258989019273402,2317569
0,0,0,0,0,0,0,0,0,0,0,0,0.1815041758423061,0.18588222096946488,-0.15738145797031616,-0.21280902776825758,3.2588178943178523,3.2587663601358363,-0.13583623598053884,-0.26883651838737943,-0.10921824088314065,0.03494843661170442,3.2595130156890173,3.259216005708695,2318626
0,0,0,0,0,0,0,0,0,0,0,0,0.42891230927852503,-0.1879105434311084,-0.0698575341531675,-0.6273806723810044,3.2588037322525656,3.2588021586897558,0.7931421390941308,-0.12194128298059499,-0.12988777516934577,0.09316908039678101,3.2592832755188077,3.258893425332716,2319682
0,0,0,0,0,0,0,0,0,0,0,0,0.2669486364064975,1.8383855627042727,-1.7656212646509724,0.1750887602673483,3.258814353801531,3.2588702152812736,0.40965740795819855,-0.16518593611549567,-0.1549227660802324,0.06957704658234674,3.2592368554159226,3.2593202542448347,2320738
0,0,0,0,0,0,0,0,0,0,0,0,1.9183607123328104,-0.04357352776211831,-0.5012100459587628,-0.15349869173749586,3.2590263913901314,3.2587761949033967,0.8194072627314642,-0.1871528729382602,-0.1939211599732828,0.5525042596464467,3.259053535348598,3.258986658929188,2321795
0,0,0,0,0,0,0,0,0,0,0,0,0.015180553815430858,-0.01900352466148432,-0.5971678730449524,-0.4277419719388451,3.258550388640211,3.258721513595761,1.0351918977727768,-0.07938742391913221,-0.14923787703965627,0.43733952490562494,3.2592034172062174,3.258983118412866,2322851
0,0,0,0,0,0,0,0,0,0,0,0,0.3519729557005114,-0.28832391361283227,-0.400755763143988,-0.31902412402917435,3.25898705231989,3.258653457004244,0.8753584355543178,-0.07251921564569659,-0.17277129563943094,0.4061003692269765,3.259073598274421,3.259051568395086,2323908
0,0,0,0,0,0,0,0,0,0,0,0,0.7596992087005625,-0.4977108356607956,-0.5089079152235884,-0.08627412155558127,3.2588076661595897,3.258631033734206,0.8789957259888321,-0.2033770922871938,-0.14587871383174822,0.34551505392969295,3.2593654941756123,3.2592773746582715,2324964
0,0,0,0,0,0,0,0,0,0,0,0,0.6611080242524175,-0.45952676052174096,-0.7461559469885763,-0.7050517326655068,3.2586676190695307,3.258946533077542,0.5166514178098939,0.010825325349012057,-0.13868045075898777,0.207462454731757,3.2592514108719124,3.2593253683239656,2326021
0,0,0,0,0,0,0,0,0,0,0,0,0.047875255093008884,-0.3364041252617985,-0.7885772333833257,-0.7158023137810604,3.259092481028137,3.258804125643268,0.42243906527031244,-0.1535793368314906,-0.13254198223852898,0.2663302262223037,3.2591802071547753,3.258994526743236,2327077
0,0,0,0,0,0,0,0,0,0,0,0,0.18453485781369897,-0.4539020602586341,-0.7315890826689103,-0.7435001663565833,3.2585767458172734,3.2590362261576917,-0.8331110278500352,-0.015195109271420152,0.21828148582953044,-1.5143118756189198,3.2596510958255642,3.2595169495960414,2328134
0,0,0,0,0,0,0,0,0,0,0,0,0.25028775337788506,-0.35585218141700997,-0.7870233401087928,-0.3965492363630815,3.2590492080508717,3.258672733148662,-0.059981460569078986,0.0226010826350549,-0.15526619616343929,0.22634874896392213,3.259502394140052,3.2591278861913544,2329190
0,0,0,0,0,0,0,0,0,0,0,0,-0.17758403749275653,-0.02441972785231207,-0.5846639495687425,-0.6886477337655703,3.2590157698411666,3.258712465609606,0.39501619279577643,-0.28099504482687054,-0.12278471264656933,-0.05728044000630855,3.2589193891190753,3.2588473986205333,2330246
0,0,0,0,0,0,0,0,0,0,0,0,1.2335532586041997,-1.0468752082437525,-0.8731334177414677,0.9923579445311956,3.2583953927034606,3.258733708707536,-0.3286708508337558,-0.235948268884214,-0.15725911346186558,-0.14976187345527095,3.2594488930045236,3.259258885295258,2331303
0,0,0,0,0,0,0,0,0,0,0,0,0.32415354539794267,-0.42615464045460705,-0.17075988897799121,-0.4487694917642464,3.258802945471161,3.2590263913901314,-0.2031685952149147,-0.06695903145778555,-0.13616157009143473,-0.4997584342668574,3.259221119787826,3.2593249749332633,2332359
0,0,0,0,0,0,0,0,0,0,0,0,0.30544388359116115,0.04154795903539169,-0.24631804779983135,-0.5897528516951622,3.2592297743832797,3.258922929635397,-0.5959652776676747,-0.2958211536194269,-0.13013285757694928,0.12264663251002221,3.259134180442593,3.258996493696748,2333416
0,0,0,0,0,0,0,0,0,0,0,0,0.6067732938257806,0.03875016435982756,-0.15918004026175023,-0.49457551176256076,3.258505935490839,3.258636934594742,-0.15115683688602888,-0.17779056761152356,-0.14023827794054483,-0.3823667147596734,3.2594520401301432,3.2594744634001804,2334472
0,0,0,0,0,0,0,0,0,0,0,0,0.3766837926726094,0.19018866898878442,-0.09736026494029343,-0.47080723891344534,3.2588529060903673,3.25896580922196,0.3012896777736756,-0.13368320866623026,-0.1400935101620567,-0.0008548379963443275,3.2595673036059503,3.259348184984706,2335529
0,0,0,0,0,0,0,0,0,0,0,0,0.6195997976779696,0.04237919358959121,-0.010088111172689339,-0.4027506473959264,3.258848972183343,3.258920962681885,0.5503504455507332,-0.08686971507903517,-0.14295110022438764,0.01352162522335353,3.259275014314057,3.259178633591966,2336585
0,0,0,0,0,0,0,0,0,0,0,0,0.41960507865012625,0.13873355850381358,-0.2593333791891788,-0.37934744111865054,3.258688075386056,3.258668405850935,0.3598816823818305,-0.08111126197710776,0.0018575908967960947,0.17065288670693476,3.259300584709714,3.2591156910795798,2337641
0,0,0,0,0,0,0,0,0,0,0,0,1.0054669029077175,-0.29036325101414334,-0.23456314022101643,-0.3328403988886355,3.258935518137874,3.258879263267429,1.15013357998533,-0.298364817901232,0.009255303055680161,-0.5164570828029016,3.259410340715687,3.259348184984706,2338636
0,0,0,0,0,0,0,0,0,0,0,0,0.8708521450581723,-0.008567656107861532,-0.5504019797327494,-0.5680723033037547,3.258649129706517,3.258688075386056,0.5843586783836696,-0.10559432573250838,-0.15690466843899112,0.41216645385819123,3.259062976725456,3.25894299256122,2339630
0,0,0,0,0,0,0,0,0,0,0,0,0.8574902364599987,-0.15197154903072702,-0.036164013882161845,0.18969771739217248,3.2586326072970158,3.258761246056705,0.6429719260897548,-0.13297235166696927,-0.13461003716111625,-0.02020651342946451,3.2591499160706894,3.2592962574119873,2340625
0,0,0,0,0,0,0,0,0,0,0,0,1.7022495630084946,-1.8809028364304108,1.3502113044513826,-1.2195804142451778,3.2590641568975633,3.2590708445395045,0.6045604711247052,-0.19058835394243642,-0.1555254406363297,0.32652451116138825,3.2593438576869795,3.2593489717661104,2341619
0,0,0,0,0,0,0,0,0,0,0,0,0.904706562126465,0.20033185485981164,-0.40781201217317725,-0.20047898298251424,3.2589398454356004,3.25898705231989,0.6685037694577896,-0.14743850796681737,-0.15590230892924176,0.44148310917414535,3.2590090821992255,3.258734495488941,2342613
0,0,0,0,0,0,0,0,0,0,0,0,0.8915173520466508,-0.7378927752843827,-0.34397256898552997,-0.4602789235447554,3.2588422845414025,3.2585551093286407,0.6813428618124558,-0.21043334131638303,-0.14572057076937803,0.3115430130413786,3.2591625045731667,3.259572811075784,2343608
0,0,0,0,0,0,0,0,0,0,0,0,-0.17506358326239385,-0.008688427053502448,-0.43820223071601755,-0.5830077747115819,3.259088547121113,3.258961875314936,0.6311410941053741,-0.09455578262278826,-0.1561702079975853,0.3756948084467421,3.2592978309747966,3.2592805217838907,2344602
0,0,0,0,0,0,0,0,0,0,0,0,0.2460847671133002,-0.3593694876872882,-0.8627187922857752,-0.6919022550466364,3.2590271781715368,3.2586931894651876,1.2140941875093207,-0.13929650059896714,-0.14047667270620734,0.46448623710706677,3.2595952343458214,3.2592372488066252,2345596
0,0,0,0,0,0,0,0,0,0,0,0,0.798081946144336,-0.518047561412759,-0.8558505840123395,-0.4979677197894716,3.2590519617857883,3.25847839814167,1.2259112508191168,-0.2683569751211375,-0.1382386730001775,0.350323468485292,3.259153063196309,3.259201056862003,2346591
0,0,0,0,0,0,0,0,0,0,0,0,0.38514759363503376,-0.3919862976057884,-0.9366699500882566,-1.016803636169867,3.2588611672951178,3.258598382305906,1.902256477148113,-0.0637473897632825,-0.14358760638089257,1.2465807851053219,3.2591507028520943,3.2590637635068607,2347585
0,0,0,0,0,0,0,0,0,0,0,0,0.14043694024526363,-0.36259529144707814,-0.757621319010415,-0.5874342068951377,3.258590121101155,3.258906800616598,0.7214714671935399,-0.20115443481855808,-0.14503489077507148,0.12654867488726076,3.2591027091863998,3.25912552584714,2348580
0,0,0,0,0,0,0,0,0,0,0,0,-0.04116322292843138,-0.27742895810949303,-1.1778782460544401,-0.4796235179452321,3.2590141962783568,3.25857792598938,-0.16792983626482919,-0.1091340552728242,-0.16526382747457352,-0.1007202149296063,3.2593949984782933,3.259551961368556,2349574
0,0,0,0,0,0,0,0,0,0,0,0,-0.017737593381117984,1.2440929823032596,-0.6702488506136953,-0.9765334101359141,3.2586632917718044,3.258786816452362,-0.6329141060011513,-0.09198064708479012,-0.14506085456143075,-0.7325281062755711,3.259241576104352,3.259381229803709,2350568
0,0,0,0,0,0,0,0,0,0,0,0,-0.016188027404311585,0.03371436997823357,-0.4787183259389789,-0.3987998245715886,3.2585818598964043,3.2587352822703455,-0.022866621359183947,-0.2765977235552935,-0.15762260647089557,-0.12872845276933345,3.2592584919045553,3.25922820082047,2351563
0,0,0,0,0,0,0,0,0,0,0,0,0.47565892644630986,0.04069194086694012,-0.2990174530765358,-0.7572507449687415,3.25912552584714,3.2588552664345816,0.012718714799727773,-0.12914426674178442,-0.1466171081801782,-0.5280215892817484,3.259166438480191,3.2593847703200303,2352557
0,0,0,0,0,0,0,0,0,0,0,0,0.24443055920965184,-0.062382324025907994,-0.1681855402213979,-0.19774727794495559,3.2587199400329516,3.2587396095680723,0.03931900731551734,-0.20220203425908495,-0.1602677655539233,-0.551451152736086,3.259166438480191,3.2592962574119873,2353551
0,0,0,0,0,0,0,0,0,0,0,0,0.7290454183871052,0.21959619755699605,-0.07569899269330414,0.08903179037949924,3.2585031817559216,3.258494527160469,0.16677326759973377,-0.19329488197504066,-0.15634172634383753,0.16402504015267372,3.259294683849178,3.25899846065026,2354608
0,0,0,0,0,0,0,0,0,0,0,0,0.88744379132316,0.061568005271912245,-0.3275622758343548,-0.21566779800269578,3.2590661238510754,3.258896572458335,0.033147100585353445,-0.12406913328994909,-0.14753213495399176,-0.1845124345436614,3.2592474769648883,3.2590759586186357,2355664
0,0,0,0,0,0,0,0,0,0,0,0,0.994216715600099,0.07784611914707651,-0.16872251853019218,-0.39528015795709587,3.258481545267289,3.2589437793426246,0.20729919759025545,0.11134766475530442,-0.14917532791797256,0.000357198757791371,3.2587958644385173,3.2590814660884693,2356721
0,0,0,0,0,0,0,0,0,0,0,0,0.46490637837724424,0.16605572295853172,0.001788747523873749,-0.4678701839292268,3.258610970808383,3.2585307191050905,2.4566580601522996,-0.6291528974953767,-0.15834408501912176,0.4183745525329771,3.259468169148942,3.2592714737977353,2357777
0,0,0,0,0,0,0,0,0,0,0,0,0.7392546938961378,0.18369850918036806,0.045217900898206334,-0.408221925285092,3.258915061821349,3.2590936612002444,0.7297775184842966,-0.17676932534805836,-0.15743810623146368,0.44656965095635065,3.2594752501815853,3.25929665080269,2358834
0,0,0,0,0,0,0,0,0,0,0,0,0.7531767908545483,0.08725130406037616,0.3288124714866246,-0.667307074941048,3.2587856362802547,3.2580739924995887,0.9432899288284694,-0.22052145248907237,-0.14984645245628983,0.5181415817906357,3.2589182089469677,3.2592514108719124,2359890
0,0,0,0,0,0,0,0,0,0,0,0,-0.11691768371077582,1.1722747888892637,0.42401302147066844,-1.036110465062912,3.258732921926131,3.2583894918429244,1.0127882972703335,-0.18560920782198997,-0.1501745403021026,0.5598610591722797,3.259610969973918,3.2591687988244056,2360947
0,0,0,0,0,0,0,0,0,0,0,0,0.6055419809272267,-0.2971807118869676,0.3240732936946504,-0.7163054604894472,3.259319860854132,3.2592167924900997,1.2165037055616028,-0.10459235961346144,-0.14449948602908683,0.752317232169775,3.25944181197188,3.258966989394067,2362003
0,0,0,0,0,0,0,0,0,0,0,0,-0.18311039008026003,0.21352106493962583,-0.10676663002570033,-1.3000386476562793,3.2587352822703455,3.2584630559042758,0.42777462336714545,-0.068299313580908,-0.1437772206994558,-0.2562853880268798,3.2590574692556222,3.258847792011236,2363060
0,0,0,0,0,0,0,0,0,0,0,0,0.3041323189893149,-0.376701495254218,-1.1032012824060062,-0.503469288762723,3.258931977621552,3.2584363053365113,0.28561305828250144,-0.1356155437964849,-0.16985194323682107,-0.009778512689889989,3.2593399237799554,3.259136540786807,2364116
0,0,0,0,0,0,0,0,0,0,0,0,0.5678496441661888,-0.3898525464358981,-0.6233216671135029,-0.369076403269339,3.258928043714528,3.259290356551451,0.45914281119618544,-0.1598562788791989,-0.13535472576078483,0.059115607633067085,3.259049994832276,3.2591967295642768,2365173
0,0,0,0,0,0,0,0,0,0,0,0,0.06914471020039441,-0.3853438955955381,-0.6140474813041069,-0.6800690627180412,3.258799011564137,3.258826548913306,0.3266523631396726,-0.07799836134891049,-0.13260807187653445,0.005703771794291948,3.2592659663279013,3.2589532207194827,2366229
0,0,0,0,0,0,0,0,0,0,0,0,0.48954719180431266,-0.4815255619914009,-0.8839162568946191,-0.45560622878148893,3.258721513595761,3.258561010189177,1.1019534470979508,-0.2823243120103254,-0.14332914868940694,1.2789076660761434,3.25970263000758,3.2595149826425294,2367286
0,0,0,0,0,0,0,0,0,0,0,0,0.2733278600368333,-0.3687963090892206,-0.6288075004586577,-0.49764710636700465,3.258965022440555,3.2588627408579276,0.5188331626454785,-0.45504249990493056,0.20016151668566662,-0.12073672064980513,3.259257705123151,3.2592820953467,2368342
0,0,0,0,0,0,0,0,0,0,0,0,-0.013922883739815203,-0.23130311147011653,-0.5213843013506295,-0.6336481730518547,3.2590004276037723,3.258590514491858,0.6462571318456092,-0.06961009140134947,-0.15645935016385915,0.3888545142238753,3.25911254395396,3.259172339340727,2369399
0,0,0,0,0,0,0,0,0,0,0,0,0.3318730511514009,0.346155493993222,-1.085901139485972,1.0035994772433612,3.258708925093284,3.2585838268499163,0.25334479252633957,-0.26029403928447237,-0.13842199306750214,0.06227453497344672,3.2596294593369315,3.259612150146025,2370455
0,0,0,0,0,0,0,0,0,0,0,0,2.2223773744556157,-1.4589177440306835,-0.32816731073466665,-0.0995581387946771,3.258612937761895,3.25869200929308,-0.24554818219520833,-0.177538797561979,-0.1428810766793581,-0.5394074963816996,3.259293110286368,3.2591156910795798,2371512
0,0,0,0,0,0,0,0,0,0,0,0,0.7454722339477817,-0.26148483294067776,-0.14136337534944718,-0.3136751906484593,3.258347399037766,3.2586951564186997,-0.21719022002103566,-0.21565442271881374,-0.14565605469418222,-0.16281457696134768,3.2591652583080837,3.258850545746153,2372568
0,0,0,0,0,0,0,0,0,0,0,0,0.43445675783833954,-0.10750227063921339,-0.38841706376279156,-0.4320511736930816,3.259012622715547,3.2589634488777453,0.3616279437098436,-0.0757568211265589,-0.14166864653451997,0.12601169657846648,3.2592612456394727,3.259409947324985,2373625
0,0,0,0,0,0,0,0,0,0,0,0,0.41546306794441556,0.014965762491913137,-0.22941955678696116,-0.3324643173771283,3.2589197825097775,3.2587116788282007,0.7314753927559128,-0.12470799979066845,-0.13583977649686058,0.6486190496228992,3.259064550288266,3.259138114349617,2374681
0,0,0,0,0,0,0,0,0,0,0,0,0.6604785991285561,0.185727225032714,-0.18259504826009848,-0.4119898214328076,3.25878484949885,3.258867068155654,1.3465488370119139,-0.15612536145751016,-0.16770835729937045,0.40728211489702637,3.259439451627666,3.2593285154495852,2375738
0,0,0,0,0,0,0,0,0,0,0,0,0.19412139584081123,-0.12698219144132034,-0.25951276534947937,-0.3448620253636867,3.258846611839129,3.258697516762914,0.7127743855445844,-0.005456329042473917,-0.13043655519921246,0.3529477778610918,3.259437091283451,3.2595515679778537,2376794
0,0,0,0,0,0,0,0,0,0,0,0,0.8952152246493368,0.005555070108779681,-0.3291460668022712,-0.12731421319415726,3.259046060925252,3.2585653374869032,0.6919876208290601,-0.036303274190816186,0.2549344843547921,-0.6490793167447229,3.259210104848159,3.25922505369485,2377851
0,0,0,0,0,0,0,0,0,0,0,0,0.27230268386634393,0.32791121338739554,-0.9331290403758336,-0.06392441557936854,3.258816320755043,3.2585012148024095,-0.01849408370185896,-0.0041900043714051685,-0.16394006776095243,-0.0505727351394576,3.259382803366518,3.259092481028137,2378907
0,0,0,0,0,0,0,0,0,0,0,0,0.6324274817022659,0.21499116599454474,-0.7222389724539485,0.6306926287046228,3.259082646260577,3.2589823316314614,0.5596895408260274,-0.0767044993286728,-0.13065016635062293,0.013540507977069375,3.2589563678451023,3.2593965720411027,2379963
0,0,0,0,0,0,0,0,0,0,0,0,2.4424393466042695,-1.9467403109956156,1.094207584167431,-0.7486319480695661,3.2584370921179167,3.2585031817559216,0.6455458814556456,-0.11454121047749644,-0.1619345619600489,-0.09534689132534162,3.259062976725456,3.2590932678095417,2381020
0,0,0,0,0,0,0,0,0,0,0,0,0.28899975883957846,-0.30329479018387673,0.2238042979007122,-0.4814936973445055,3.2587341020982388,3.258701450669938,0.7615123464479859,-0.14786651705104314,-0.16237673310956155,0.3447204047108179,3.2594630550698107,3.2595783185456177,2382076
0,0,0,0,0,0,0,0,0,0,0,0,0.15680592737268534,0.09622257902891385,0.11055026180151245,-0.5576580712387647,3.259220726397124,3.258833629945949,0.7970107432616642,-0.12230713633383945,-0.13726975170013328,0.1619227602389765,3.258893425332716,3.2594540070836553,2383133
0,0,0,0,0,0,0,0,0,0,0,0,0.4651109415424992,-0.34170388480471187,-0.5146435516647758,-0.9187628053143984,3.259046060925252,3.2590362261576917,0.16680277190241477,-0.13097628724292362,-0.14934487931071272,0.1851992947100752,3.2594264697344864,3.259231347946089,2384189
0,0,0,0,0,0,0,0,0,0,0,0,0.17071976312634504,-0.6187378786489818,-0.3790040110354436,-0.6797932958356494,3.259012622715547,3.2586263130457773,0.23184677742085189,-0.11387362645550089,-0.11215332891384708,-0.20912177671453674,3.2596904348958056,3.2591424416473433,2385246
0,0,0,0,0,0,0,0,0,0,0,0,-0.024314299144065275,-0.42232812909223183,-0.8121732011047841,-0.5234881548271363,3.2591082166562337,3.2592659663279013,0.23472521719041073,-0.11715371813222386,-0.13832325200119638,0.27072990783809514,3.259187681578121,3.25914676894507,2386302
0,0,0,0,0,0,0,0,0,0,0,0,0.08337129156247276,-0.43439656906087026,-0.5287308727181999,-0.6444015079023251,3.259097988497971,3.2586215923573483,0.9745837658147531,-0.0984660862047775,-0.04071790465329941,0.02052437311701454,3.259317107119215,3.2594650220233228,2387358
0,0,0,0,0,0,0,0,0,0,0,0,0.3802188015244962,-0.3664965470429119,-0.46674351295751487,-0.45214793111657275,3.2585429142168656,3.2586267064364796,-0.4958634729222623,-0.12976503727019276,0.06007469416555097,-1.7202452206903958,3.259470922883859,3.2591259192378423,2388353
0,0,0,0,0,0,0,0,0,0,0,0,0.2855320197978043,-0.15199279212865735,-0.5324720182981513,-0.8031574729868737,3.2589547942822925,3.258755345196169,0.2291064177878401,-0.24196872019394877,-0.13584567735739678,0.00319629945710891,3.2591644715266788,3.2589815448500565,2389347
0,0,0,0,0,0,0,0,0,0,0,0,0.9714032019857408,-0.5209059382564948,0.002667188962362881,-0.6547866290553365,3.258793110703601,3.258906800616598,-0.024828067401417183,-0.08827687362156791,-0.12127605930281392,-0.5109653485972104,3.2591963361735745,3.2592144321458854,2390341
0,0,0,0,0,0,0,0,0,0,0,0,-0.30818660356838745,-0.11730005947352165,0.5021144511836113,-0.6184090040217642,3.258863921030035,3.2587498377263353,0.13732639996128082,-0.08588859866721614,-0.14719460573132107,0.26269962342973036,3.2594492863952262,3.259304518616738,2391336
0,0,0,0,0,0,0,0,0,0,0,0,0.444564931936852,0.1108889711962904,0.17293533956233734,-0.3279458317692079,3.258873362406893,3.2589256833703137,0.19291644011931897,-0.14893771993371485,-0.13469855006915926,0.05755738706080759,3.259142048256641,3.2586121509804906,2392330
0,0,0,0,0,0,0,0,0,0,0,0,0.367363580151031,0.23539830868224007,-0.16576067993172167,-0.35560237832097746,3.258725054112083,3.2590688775859924,0.44084581623623564,-0.27145414012123825,-0.16721543874924644,0.649492376982257,3.259470136102454,3.259554715103473,2393324
0,0,0,0,0,0,0,0,0,0,0,0,0.4860861404044795,0.09694366418643761,-0.0902013409377743,-0.2630776718947496,3.2588289092575202,3.2584685633741097,0.8663694580041715,-0.20617488696275793,-0.15733267752321692,0.38027190926932203,3.2594237159995694,3.2593584131429685,2394319
0,0,0,0,0,0,0,0,0,0,0,0,0.8863525255146653,-0.10376427218488123,-0.2922495594322156,-0.33881049618846126,3.258877296313917,3.2591613244010595,0.541688769064995,-0.19079134354488175,-0.1215364839478116,0.11778117630257325,3.2594229292181645,3.2590429137996333,2395313
0,0,0,0,0,0,0,0,0,0,0,0,0.768342002432585,0.12982011196853063,-0.08862817151882307,-0.4124748721688833,3.2586306403435037,3.258643228845981,0.4893308269179853,-0.08304281032595758,-0.12381500289619002,0.4282230887678967,3.25911254395396,3.2589693497382815,2396307
0,0,0,0,0,0,0,0,0,0,0,0,0.7627196625136927,0.09754358500761806,0.07789214585925887,0.04376786276911053,3.2586802075720076,3.2584445665412622,1.0674200376772924,-0.08288545404499222,-0.1273854169112941,0.7066276558193749,3.2590948413723515,3.259088547121113,2397302
0,0,0,0,0,0,0,0,0,0,0,0,0.7434073261508137,0.09606955004567504,0.17383895800578092,-0.31317873158201354,3.2586971233722117,3.258811600066614,-0.1339829723814693,0.4023965957637543,-0.14681655726630177,0.3109729899135816,3.2590342592041797,3.2592431496671614,2398296
0,0,0,0,0,0,0,0,0,0,0,0,0.6415439178399942,0.22070280560288494,-0.20045301919615496,-0.21831610421134284,3.2590995620607806,3.258507902444351,0.6611540509646,-0.2409604598236632,-0.15851796370958848,-0.1289755021304491,3.2597199391984866,3.2590027879479866,2399290
0,0,0,0,0,0,0,0,0,0,0,0,-0.5225518849553924,1.1543251579195448,-0.9290114198936724,-0.41110272539886533,3.259107429874829,3.258708138311879,0.6651115614308788,-0.03047755127877608,-0.16759781451199227,0.10562343664448698,3.259177060029156,3.2594256829530814,2400285
0,0,0,0,0,0,0,0,0,0,0,0,-1.0456553036755687,1.1716697539889518,-0.535512928427807,-0.695676838836293,3.2590244244366193,3.2588257621319006,1.0954196209215665,-0.12661358435315898,-0.14910766471715745,0.5167647143321888,3.2593993257760197,3.258904833663086,2401279
0,0,0,0,0,0,0,0,0,0,0,0,0.5200369381948636,-0.223980143544691,-0.3558273978027579,-0.3432341746371,3.2587903569686834,3.2587997983455415,0.8708257878811106,-0.12203254962355489,-0.152035278324518,0.23427163771052809,3.259439845018368,3.2594323705950226,2402273
0,0,0,0,0,0,0,0,0,0,0,0,0.03506212652470189,-0.15965171571394393,-0.3535079662213285,-1.116405441332512,3.259292323504963,3.2587856362802547,0.2121288552437848,-0.22403443146162405,-0.12093734990803597,-0.2673829397419619,3.259021670701703,3.259062976725456,2403267
0,0,0,0,0,0,0,0,0,0,0,0,0.559959406847883,-0.37218694355332177,-0.8266916783680532,-0.5006227136400597,3.258681387744115,3.2586396883296596,0.42359366698189577,-0.1683849893075215,-0.1508165539284413,0.07441850595694852,3.2590437005810378,3.2591522764149037,2404324
0,0,0,0,0,0,0,0,0,0,0,0,-0.10383940980904219,-0.37876364931626905,-0.6997747897833334,-1.0203559542126601,3.2586943696372948,3.258637327985445,0.44749726623264147,-0.141405074763903,-0.14500223934677117,0.12983112690819823,3.2595405530381862,3.2593296956216924,2405381
0,0,0,0,0,0,0,0,0,0,0,0,-0.16004549980705973,-0.6123779311630644,-0.9705880964503403,-0.8314343966763492,3.2590913008560296,3.2590252112180247,0.5647162872214659,-0.21929840079526908,-0.14851875883564458,0.12834686378799245,3.2591208051587106,3.2589559744543997,2406437
0,0,0,0,0,0,0,0,0,0,0,0,-0.034213976170298595,-0.563689537488167,-1.1059888489233074,-0.7122614040686374,3.2585106561792676,3.2585417340447584,0.6517217220928337,0.026606586767028182,-0.15900183427355696,0.8802109098685872,3.259309239305167,3.2591837476710968,2407494
0,0,0,0,0,0,0,0,0,0,0,0,0.2593797992920636,-0.4337219040062313,-0.8639375166818519,-0.46726632920102223,3.2588741491882978,3.258968956347579,0.8487408338476221,-0.4719166006942511,-0.15166116376652283,-0.22723269787224504,3.259475643572288,3.2595193099402557,2408550
0,0,0,0,0,0,0,0,0,0,0,0,0.664460893209087,-0.17405610967351312,-1.0373343035381202,-0.414009489298998,3.2589606951428287,3.2589252899796115,-0.7483845053177482,-0.15524692001902102,-0.124360242409735,-0.4870739444582396,3.25929665080269,3.2592765878768666,2409607
0,0,0,0,0,0,0,0,0,0,0,0,2.159614641620474,-1.2290697847687941,0.043297367489024095,-1.5340482871590002,3.2584197829270103,3.2585673044404153,-0.9223414805342531,-0.1942295782839749,-0.13247038513068976,-0.43772150727766834,3.259115297688877,3.2592108916295635,2410663
0,0,0,0,0,0,0,0,0,0,0,0,0.9562124200120472,-0.1063405878949866,-0.18649984437225392,-0.2063432581833909,3.258970529910389,3.258881623611644,-0.08917773833009461,-0.22945653551298803,-0.13108840359311144,-0.0661742170064708,3.259633786634658,3.2594429921439874,2411720
0,0,0,0,0,0,0,0,0,0,0,0,0.9748831361392899,0.26006508589566774,-0.275455316955485,-0.5201333189169549,3.2588824103930483,3.258782095763933,-0.06084810028649572,-0.1942756049961573,-0.13194481515226544,-0.014060570485659894,3.2593324493566094,3.2590732048837188,2412777
0,0,0,0,0,0,0,0,0,0,0,0,0.5584601948809855,0.40887849436742,-0.17831023672941168,-0.4649425703218663,3.2588454316670212,3.2585496018588067,0.0840821485617338,-0.22514025272610813,-0.14273906263578684,-0.08822730639306382,3.258953614110185,3.2587533782426568,2413833
0,0,0,0,0,0,0,0,0,0,0,0,0.35832424859097584,0.07498144805210209,-0.17023510578097173,-0.4451888495908796,3.258820254662067,3.258765179963729,0.38456301505124746,-0.14654354411882686,-0.13704512560905524,0.17688458882386549,3.259051175004384,3.2595228504565776,2414890
0,0,0,0,0,0,0,0,0,0,0,0,0.5930447450929576,0.08986892579423496,-0.19221345093410622,-0.5508118928446643,3.2591853212339066,3.25908972729322,0.661612744523614,-0.16927287212286854,-0.14416510393203544,0.5796281551871485,3.2593100260865717,3.259399719166722,2415946
0,0,0,0,0,0,0,0,0,0,0,0,0.6174082180748245,0.06078909168113371,-0.2868490918694844,-0.49630643085317977,3.258847005229831,3.258657390911268,0.5460152800101375,-0.02046693807446218,-0.14889602051925904,0.3806295014178158,3.2595110487355052,3.2589603017521265,2417003
0,0,0,0,0,0,0,0,0,0,0,0,0.498536169354459,0.06612386299656188,-0.17151677268943458,-0.6219082143197314,3.2590822528698746,3.258931977621552,1.1486925898423896,-0.21747700184309504,-0.13849988442657998,1.0808303333318632,3.2592368554159226,3.2592329215088984,2418059
0,0,0,0,0,0,0,0,0,0,0,0,0.5063965089793812,0.010802902078974493,-0.271929749480456,-0.3674576005289078,3.258835596899461,3.2591699789965123,0.6972952481860218,-0.1698672854742152,-0.14633386687444055,0.4010940791480635,3.259311206258679,3.2592494439184003,2419116
0,0,0,0,0,0,0,0,0,0,0,0,0.8930928818098165,0.5859735472170766,-1.3324906268704684,1.0231328991809963,3.2587207268143565,3.258614511324705,0.9943284385595844,-0.234603659463365,-0.15419341971795794,0.5882111535324042,3.259377689287387,3.2590244244366193,2420172
0,0,0,0,0,0,0,0,0,0,0,0,1.4217096712243165,-0.23566463418777397,-0.6067111380947993,0.47786899541246836,3.2585012148024095,3.2587502311170375,1.1711260880382166,-0.11417929103127611,-0.13139957563872046,0.6690800868368252,3.25915817727544,3.259082646260577,2421167
0,0,0,0,0,0,0,0,0,0,0,0,0.2561583228300003,-0.13996959209079646,-0.134027425530842,-0.13768831940750115,3.258804912424673,3.2585216711189355,1.223777106258524,-0.07603022766473623,-0.15412496973573803,0.48274074587115595,3.2592262338669578,3.25929507723988,2422161
0,0,0,0,0,0,0,0,0,0,0,0,0.47117230548528494,-0.10101132404939223,-0.5206136489646016,-0.6276607665611227,3.2590232442645126,3.258432371429487,0.9790397023009899,-0.09396294283425126,-0.14462104375613255,0.2166430135539786,3.259094054590947,3.2592069577225393,2423155
0,0,0,0,0,0,0,0,0,0,0,0,0.08975248214632059,-0.20749628633216455,-0.34119011654736,-0.651993161677499,3.2587832759360404,3.258699483716426,0.4066259392054008,-0.011116041078095563,-0.14892001735210625,0.1310211337829988,3.259405226636556,3.2591943692200624,2424150
0,0,0,0,0,0,0,0,0,0,0,0,0.13723710027183295,-0.24527516904773344,-0.5831065157778877,-0.9428391030835035,3.2586416552831716,3.25915817727544,-0.03210540200536275,-0.17160056490904865,-0.12713482703385673,-0.35753982753036345,3.2592478703555905,3.259256918341746,2425144
0,0,0,0,0,0,0,0,0,0,0,0,0.10038583283255491,0.3439513258875997,-0.6937614195062421,-0.828906861413343,3.258740002958775,3.258786816452362,0.08119151368040009,-0.2483152923959842,-0.14907619346096437,-0.14795699691259823,3.259250624090507,3.2595208835030656,2426138
0,0,0,0,0,0,0,0,0,0,0,0,0.11951484912810911,-0.33868893846141557,-0.4751888245569258,-0.5456368381544159,3.258910734523622,3.258448893838989,1.1435139946358197,-0.4945015543105071,-0.0851568919607272,0.0643779950592512,3.2596353601974677,3.2593548726266466,2427133
0,0,0,0,0,0,0,0,0,0,0,0,0.25225824740627373,-0.2739344684999548,-0.39044617300583995,-0.7508294285332475,3.2591507028520943,3.258869035109166,-0.6362602873158797,-0.3902235138682739,0.08271944316857374,-0.32740688650690153,3.2590787123535527,3.2592738341419496,2428127
0,0,0,0,0,0,0,0,0,0,0,0,0.17824847438913277,0.38072745570271677,-0.6858338100712073,-0.6449376994297146,3.2586428354552783,3.2584941337697666,0.23494236885814296,-0.17139206783676955,-0.13376267358811778,0.03566440769009682,3.2591566037126305,3.2591054629213168,2429121
0,0,0,0,0,0,0,0,0,0,0,0,1.2199832463244493,-0.8796522950711602,0.9534799281930837,-1.8064815767385456,3.2589339445750642,3.2585728119102493,0.10779141280548725,-0.3007688284836803,-0.15217099811685061,0.184137139813559,3.2594599079441915,3.2593009781004163,2430116
0,0,0,0,0,0,0,0,0,0,0,0,-0.28074642190294524,-0.051126235857753256,-0.06380089089881073,-0.4865523083868394,3.2585173438212087,3.25905550230211,-0.3781771037789706,-0.08159867305739796,-0.1181674859723432,-0.15366037531618779,3.2592242669134457,3.2591534565870113,2431110
0,0,0,0,0,0,0,0,0,0,0,0,0.2866992100118649,-0.2029549840635042,-0.14268595489096103,-0.7387838052253491,3.258927650323826,3.2587722609963725,0.20178031942609778,-0.19940856688124736,-0.1520116748823732,0.41158305544651214,3.2591251324564374,3.259104676139912,2432104
0,0,0,0,0,0,0,0,0,0,0,0,0.40398471402939723,0.14437163405080247,-0.5390455769354793,-0.44323448458128983,3.259195156001467,3.25887296901619,0.7511465014393928,-0.11611398650574523,-0.14460530812803601,-0.2607287360106392,3.2596341800253605,3.25939775221321,2433099
0,0,0,0,0,0,0,0,0,0,0,0,0.6825718143667953,0.14228469637449936,-0.27398718285407814,-0.2020356299919641,3.2590987752793756,3.2587797354197185,0.4050948625916078,-0.10248221188571595,-0.12019659521539154,-0.27679599246930986,3.2593839835386254,3.2594020795109366,2434093
0,0,0,0,0,0,0,0,0,0,0,0,0.7389966295953547,-0.025655761439294985,-0.043502717435683895,-0.19197741651265815,3.258822615006282,3.2585751722544636,0.8150225299623644,-0.11640745596974562,-0.1269605549526876,0.06089648734289256,3.259345431249789,3.2593053053981427,2435087
0,0,0,0,0,0,0,0,0,0,0,0,0.6687350831908087,0.387379299089825,-0.3086232672480663,-0.3425229242471366,3.2592478703555905,3.258747083991418,0.12267731698481046,-0.11764742346375268,-0.13918163051386243,0.3365189953469032,3.259354085845242,3.259462268288406,2436081
0,0,0,0,0,0,0,0,0,0,0,0,0.5341643850999337,0.05823441245966106,-0.18848843437295368,-0.5083201895141827,3.2586058567292517,3.2588788698767264,0.07999914646138506,0.8327345529478255,-0.11584254692107998,0.6811847187500856,3.259274227532652,3.2589815448500565,2437138
0,0,0,0,0,0,0,0,0,0,0,0,0.8962754125923409,-0.1304967439766817,0.1452119165911575,-0.23182907483924328,3.2587038110141524,3.2586318205156113,1.9743083446393423,-0.1698527300182259,-0.15194361829085568,0.7818616607024265,3.2590177367946787,3.258793504094303,2438195
0,0,0,0,0,0,0,0,0,0,0,0,0.8436200670743068,0.11781736824719527,0.5171848556023664,-0.461782069418677,3.2591373275682125,3.2587341020982388,1.0360073966988799,-0.0856561047620898,-0.1377304122126594,0.08871668442686609,3.2593029450539284,3.2592518042626146,2439251
0,0,0,0,0,0,0,0,0,0,0,0,-0.8836035112862004,0.7671606501532375,-0.0031109336746852007,-1.1668440302424468,3.258620018794539,3.2585716317381417,0.6010266424449255,-0.16395108270062,-0.1369774624082401,-0.057239527373257555,3.259193582438657,3.2591939758293598,2440308
0,0,0,0,0,0,0,0,0,0,0,0,0.14256872446164184,0.041609721375670594,-0.43281985912559734,0.10758606285882745,3.258592874836072,3.2590134094969523,0.2544447129302874,-0.21772719832982995,-0.14277368101759924,-0.027402809548712916,3.259119624986604,3.2591377209589147,2441364
0,0,0,0,0,0,0,0,0,0,0,0,0.46288671051105384,-0.5688287936244957,-0.3430626562908478,-0.29088016639711456,3.2591204117680084,3.2590059350736063,0.4538135473505911,-0.1550380295560395,-0.1478590426276973,0.5872154816645957,3.2593765091152798,3.259417815139033,2442421
0,0,0,0,0,0,0,0,0,0,0,0,0.3562833376268551,-0.48606057000882263,-0.7157366175337573,-0.8524961414928605,3.2590488146601695,3.2589681695661747,0.7267295273219975,-0.12196606659484702,-0.14362261815340735,0.6600206923509468,3.25918099393618,3.2592832755188077,2443477
0,0,0,0,0,0,0,0,0,0,0,0,0.0019244673162063736,-0.325860074265012,-0.8713981713531221,-0.8333679119787111,3.2589032601002765,3.258712465609606,0.8273045810824133,-0.12260139257924467,-0.14061750657767136,0.408303750551194,3.2594842981677408,3.2593257617146683,2444534
0,0,0,0,0,0,0,0,0,0,0,0,0.035546390479372796,-0.6015821101167332,-0.51323914685716,-0.27743525236073163,3.2590488146601695,3.2588796566581317,0.6674502691567265,-0.0262049348598641,-0.15713676895341502,0.10464192684196554,3.259317107119215,3.259318680682025,2445591
0,0,0,0,0,0,0,0,0,0,0,0,0.6328771272751245,-0.4304150617617442,-0.6604593229841378,-0.49378755018562676,3.2589245031982066,3.2587266276748927,0.7609096718918885,0.006153417367150469,0.02234105138075964,-0.27288922940364235,3.2592537712161267,3.259230167773982,2446647
0,0,0,0,0,0,0,0,0,0,0,0,0.3141688959799881,-0.40067747839420775,-0.10840431551984733,-0.3236677078804621,3.258405227471021,3.2586208055759434,0.779515478553233,-0.14950695628010705,0.02330013791324352,-2.236281375441715,3.259291143332856,3.2590704511488022,2447704
0,0,0,0,0,0,0,0,0,0,0,0,0.3304670727809754,-0.3683309278882656,0.14081852922660462,-0.4501915991534709,3.2591648649173814,3.2588623474672254,-0.31010517002405763,0.06472417887737499,-0.14137793080543645,-0.5464393551873392,3.2597474765476555,3.2593717884268507,2448760
0,0,0,0,0,0,0,0,0,0,0,0,0.7770638676957926,0.5140306489504157,-0.8194717788066599,1.4634822563507863,3.258900112974657,3.258673519930067,-0.2365985437153034,-0.07038664464791354,-0.1331360021991732,-0.3679465851720077,3.2593064855702503,3.2591802071547753,2449817
0,0,0,0,0,0,0,0,0,0,0,0,-0.23738139121310606,0.8690669380506203,-0.32791711424793174,-0.11288975630876497,3.258759279103193,3.258585007022024,-0.2322090902577746,-0.15771072598823616,-0.15354550523108304,-0.019984247682600938,3.2594382714555588,3.2593029450539284,2450873
0,0,0,0,0,0,0,0,0,0,0,0,0.5276380333468953,-0.02539061610586835,0.13808289028202178,-0.4316074289807592,3.2591211985494133,3.258950466984566,0.21812885023699405,-0.10539684359989686,-0.12952742928593508,-0.12456008488656102,3.259566123433843,3.2593713950361485,2451930
0,0,0,0,0,0,0,0,0,0,0,0,0.5176931163898845,0.2688550077503929,-0.19414263893874154,-0.4484787760351629,3.259040160064716,3.258674700102174,-0.06304754770368906,-0.2757759303779519,-0.1337811629511312,-0.010713208998824239,3.2590279649529412,3.2590932678095417,2452986
0,0,0,0,0,0,0,0,0,0,0,0,0.9321955242390065,0.08647632437662175,-0.18141920345058482,-0.2497794925903669,3.2586743067114714,3.258557469672855,0.2925984969852563,-0.14166471262749583,-0.14076227435615948,0.05221356775922391,3.259184534452502,3.259141654865939,2454043
0,0,0,0,0,0,0,0,0,0,0,0,1.2121488704858865,0.07145942109339488,-0.1371269508751572,-0.3236393837498883,3.258989412664105,3.2588481854019387,0.5621458723718967,-0.19809700227940108,-0.14027210954095237,-0.08738545028989914,3.259409947324985,3.259109003437638,2455099
0,0,0,0,0,0,0,0,0,0,0,0,0.8454493338405291,-0.07198105716479505,-0.1535769764872761,-0.13530869904860246,3.2587266276748927,3.258708138311879,0.4129524484816132,-0.20545301502382932,-0.15197823667266805,0.016678979000923515,3.258928043714528,3.2592699002349255,2456156
0,0,0,0,0,0,0,0,0,0,0,0,0.7003176689526639,0.06985674737176267,-0.3447353535575096,-0.3424898794281339,3.2589386652634937,3.258398933219782,0.5478347120087995,-0.15795620178654216,-0.13156047243600755,1.4785868857606512,3.259393031524781,3.2593662809570167,2457212
0,0,0,0,0,0,0,0,0,0,0,0,0.4318985381005451,0.12071272381695793,0.032704929435840774,-0.16376146838205674,3.2588592003416057,3.258930404058743,0.3165103574407527,-0.19342588107894432,-0.11450934583060095,0.7466634209946896,3.2594252895623788,3.2592388223694346,2458269
0,0,0,0,0,0,0,0,0,0,0,0,0.6431041053657657,0.0469952400917101,-0.017326106706393563,-0.008184100173008461,3.2589756439895203,3.258493740379064,1.1748094051849134,-0.17213714982714054,-0.10872571572371909,0.4269020827891925,3.2591849278432043,3.259219152834314,2459325
0,0,0,0,0,0,0,0,0,0,0,0,0.9361353321236767,0.05932528487745343,-1.5776064726837244,1.2736067263611228,3.2589477132496487,3.2589268635424213,0.33863583071658976,-0.08878080711135948,-0.1268098863136633,-0.022542467420395305,3.259275014314057,3.2591314267076763,2460382
0,0,0,0,0,0,0,0,0,0,0,0,1.1773483487782894,-0.8085166345258515,0.08809827424267222,-0.40568455525452557,3.258992559789724,3.2587533782426568,0.6161863465531285,-0.17379332468430098,-0.16449435526065292,0.10404987383483337,3.25952324384728,3.259610969973918,2461438
0,0,0,0,0,0,0,0,0,0,0,0,0.2104404223490265,-0.137977461573775,-0.5326081314811864,-0.18179253122717512,3.2587718676056703,3.258795471047815,0.7897456037694935,-0.07491771875831112,-0.14408642579155276,0.37718300547397204,3.258990986226914,3.258853692871772,2462495
0,0,0,0,0,0,0,0,0,0,0,0,-0.41445126705780827,-0.1747425764492245,-0.5891855823022821,-1.061446399861145,3.2590673040231826,3.2588033388618634,0.6617272212180163,-0.15250656038600924,-0.1349660557468004,0.25132001058101777,3.259018916966786,3.25911411751677,2463551
0,0,0,0,0,0,0,0,0,0,0,0,0.06811756707639302,-0.09451132947341553,-0.3881464109595312,-0.3940752022356036,3.2588808368302384,3.2589307974494455,0.544298129594103,-0.14355770868750914,-0.15087595592450567,0.2611087514291705,3.2593033384446306,3.2593694280826364,2464608
0,0,0,0,0,0,0,0,0,0,0,0,-0.025046792631959035,-0.5866289361272974,-0.6950635427312305,-0.9436258844883303,3.2589776109430324,3.2586243460922653,0.5566486306963718,-0.1499168693920218,-0.13289918099632037,0.36496468364771406,3.2592419694950543,3.259111363781853,2465664
0,0,0,0,0,0,0,0,0,0,0,0,0.15487437902383552,-0.36412440110735905,-0.5753299683725797,-0.9023253682047567,3.259149129289285,3.259064550288266,0.666316517152371,-0.26458435828499294,-0.1452764326663533,0.3011079312691607,3.2592592786859607,3.2592136453644804,2466721
0,0,0,0,0,0,0,0,0,0,0,0,0.33520192327522313,-0.5944412820865251,-0.8245716958727474,-0.6889628397182035,3.2588808368302384,3.2586703728044473,1.2543958847994667,-0.3950236672191223,-0.12883466825898507,1.0453480655369836,3.259499247014433,3.2593202542448347,2467777
0,0,0,0,0,0,0,0,0,0,0,0,-0.017905571211048507,-0.834776250693351,-0.08929339519660415,-1.2167440672807772,3.258614511324705,3.25883048282033,0.8059666759928078,-0.271130379573152,-0.13549791997646332,-0.5547595685433827,3.259332055965907,3.2591243456750325,2468834
0,0,0,0,0,0,0,0,0,0,0,0,0.28126294389521406,-0.018409898091542493,-0.8683423123767747,0.6568857618434145,3.2592879962072363,3.259075565227933,0.1640065507896603,-0.18124729171363013,-0.16465918596496415,-0.6182217500474155,3.25920381059692,3.2589544008915903,2469890
0,0,0,0,0,0,0,0,0,0,0,0,-0.4783202145481365,-0.25828538635794956,-0.4004422307541646,-0.73646280008111,3.2587132523910105,3.2583934257499485,-0.32747022240999013,-0.20561469860252124,-0.149230009225608,-0.43511214674856025,3.2590413402368235,3.2591034959678047,2470885
0,0,0,0,0,0,0,0,0,0,0,0,0.465527542296355,-0.020489754735202162,-0.6095872175201437,-0.20460879857645015,3.2585960219616914,3.2586711595858526,-0.10716670837005475,-0.20576222011592626,-0.13668202599072768,-0.20083303461468632,3.259090514074625,3.258995313524641,2471879
0,0,0,0,0,0,0,0,0,0,0,0,0.5233587292860424,-0.2521646204190994,-0.37720542874400953,-0.16501874506696998,3.2590519617857883,3.259113330735365,-0.20889321671643454,-0.09367576762148948,-0.16513794244980123,-0.3007467986043451,3.259289569770046,3.2589787911151396,2472874
0,0,0,0,0,0,0,0,0,0,0,0,0.6191214345838348,-0.09928905955422633,-0.28449779564115946,-0.4041235809473492,3.2589103411329194,3.258554715937938,0.20832162002582788,-0.09129614726259079,-0.14193733238426834,0.2378680155119914,3.25916958560581,3.259319860854132,2473868
0,0,0,0,0,0,0,0,0,0,0,0,0.7159994025229695,0.045187216423418095,-0.3485803542828982,-0.30933963171716117,3.2590964149351613,3.258664078553209,0.8456031496051728,-0.09470015701057398,-0.12486850319725312,0.5691435061864264,3.2593324493566094,3.259309239305167,2474863
0,0,0,0,0,0,0,0,0,0,0,0,0.6623243883042799,-0.07347594183396598,-0.3382888601170611,-0.10887166367431446,3.2588942121141207,3.2591211985494133,0.9358414692689739,-0.13603096437823348,-0.1501190722130623,0.5118866696222626,3.259468169148942,3.259292323504963,2475857
0,0,0,0,0,0,0,0,0,0,0,0,0.47258103759062736,0.17884052739626494,-0.35619521810951443,-0.05774149390953706,3.2587494443356326,3.258603496385037,1.2549065059311992,-0.21378542349164764,-0.1476776895138847,1.7611724091973793,3.2589311908401477,3.2596310328997413,2476852
0,0,0,0,0,0,0,0,0,0,0,0,0.6173204919481864,0.3016736270992311,-0.14969696398937274,-0.46936349503558816,3.2589071940073007,3.2590279649529412,-0.01022225740221231,-0.023434284142766493,-0.146277218613293,-0.14687084518323484,3.2590031813386893,3.259053535348598,2477846
0,0,0,0,0,0,0,0,0,0,0,0,0.7938175909301747,0.17157735485760628,-0.26987703679526287,0.2031984929082981,3.2588898848163943,3.2589827250221637,0.5033382896588193,-0.1347233336834113,-0.1375514194430613,0.23758359403414653,3.259584612796856,3.2589307974494455,2478840
0,0,0,0,0,0,0,0,0,0,0,0,0.23104465377863093,0.6005813241697936,0.5555058307058609,-1.3174383184240244,3.258789963577981,3.25841152172226,0.6151757258386285,-0.17475241121678484,-0.14895266878040656,-0.17817451693707906,3.25933913699855,3.259300584709714,2479835
0,0,0,0,0,0,0,0,0,0,0,0,0.06057705409253288,1.4240471987780567,-0.08451448494368612,0.013959075684437237,3.2589807580686516,3.259136540786807,0.7443506770552012,-0.023771813365437194,-0.12089289675866327,0.11093735825268723,3.2591188382051985,3.2592573117324486,2480829
0,0,0,0,0,0,0,0,0,0,0,0,0.31701547110265144,-0.12022570612737013,-0.6195691132031814,-0.6140006678105197,3.2588883112535845,3.2588682483277616,0.8454009467841324,-0.1023165943999999,-0.169279953155512,0.3102566254444868,3.2593906711805665,3.259294290458475,2481824
0,0,0,0,0,0,0,0,0,0,0,0,0.14331459323341766,-0.38091313611425587,-0.49976276156458393,-0.5155597586106967,3.2589418123891125,3.2585968087430963,0.966157336969058,-0.11021509292305623,-0.1722091403256822,0.5198280477318821,3.25938634388284,3.25922505369485,2482818
0,0,0,0,0,0,0,0,0,0,0,0,0.2909663189609431,-0.21660918195357107,-0.9262132318274059,-0.6001430869273051,3.258786816452362,3.25893001066804,0.5722402777958248,-0.09875168785472964,-0.09720330205003047,0.2438310317791738,3.259235281853113,3.259354085845242,2483813
0,0,0,0,0,0,0,0,0,0,0,0,0.3882278428349307,-0.5024716499414027,-0.8642903881419167,-0.6165608545018262,3.2589748572081154,3.258879263267429,0.6680734000293492,-0.07336697260939748,-0.143101768863412,0.3769988986252425,3.259140081303129,3.259075171837231,2484807
0,0,0,0,0,0,0,0,0,0,0,0,0.7837943892233835,-0.27946436160377996,-0.8864961131210461,-0.701280689392172,3.259052355176491,3.2586208055759434,0.7427688530407969,-0.33507013738991465,-0.13767651768642875,-0.17824532726351347,3.25955746883839,3.259525604191494,2485801
0,0,0,0,0,0,0,0,0,0,0,0,-0.04209437872104391,-0.5764263482602058,-1.0642276721272077,-0.5657135326520839,3.2585621903612836,3.2587541650240617,0.13959233040718202,-0.3099375855848295,0.13009351850670794,-0.8479446110659373,3.259107429874829,3.2589339445750642,2486858
0,0,0,0,0,0,0,0,0,0,0,0,0.3108101261627825,-0.7430579952070707,-1.0278775844428043,-0.6290368472381648,3.2585991690873106,3.258597595524501,-0.6929545751755922,0.19127875462517197,0.03703183377168581,-0.37177191636227563,3.25881750092715,3.2589728902546033,2487914
0,0,0,0,0,0,0,0,0,0,0,0,0.26587389300750414,-0.24870946987980244,-0.683331845203858,-1.2624777033898475,3.2588257621319006,3.2587191532515467,0.012470091875802503,0.04482175646087604,-0.1509109676970205,-0.3690055929429046,3.259197122954979,3.259168012043,2488971
0,0,0,0,0,0,0,0,0,0,0,0,0.7570233651427466,0.33053237563757604,-1.4087592493008672,-0.354984361527486,3.2589268635424213,3.2587722609963725,0.33007171512504996,-0.15193693064891464,-0.13653450447732265,-0.20516505302966273,3.2593359898729313,3.2591373275682125,2490027
0,0,0,0,0,0,0,0,0,0,0,0,0.478193149351257,0.07611952735418406,-0.586444829278568,-0.13716274942907683,3.2588961790676327,3.258863921030035,-0.5122005954027886,-0.17238380579755375,-0.12045859342319887,-0.7623062088854561,3.2589252899796115,3.2591259192378423,2491084
0,0,0,0,0,0,0,0,0,0,0,0,0.6517803373074933,-0.00664358218235757,-0.013582994172930022,-0.025802496171295188,3.2590956281537564,3.258553535765831,-0.8857427699259245,-0.12276386293934141,-0.11849714738096563,-0.5287127767458888,3.259471316274561,3.259447319441714,2492140
0,0,0,0,0,0,0,0,0,0,0,0,0.6149731296268856,-0.1663578470179852,0.00638237075595507,-0.5146274226459768,3.258708531702582,3.258850545746153,0.3097196471356925,-0.20913082470069225,-0.14075637349562328,0.3938313000001073,3.25926085224877,3.259232134727494,2493197
0,0,0,0,0,0,0,0,0,0,0,0,0.6869537934009782,0.002178597709965433,-0.19074492344199698,-0.5346612375570818,3.2588513325275574,3.2588379572436756,0.42440995268940357,-0.17688930951229445,-0.1384117649092394,0.19321345009964108,3.259134573833295,3.259232134727494,2494253
0,0,0,0,0,0,0,0,0,0,0,0,0.5062273509773434,0.3414257575781056,-0.012761594386290835,-0.49624663546641296,3.2587718676056703,3.258706958139772,0.6439974956509465,-0.19815640427546552,-0.1387524412575294,0.36302998817324494,3.2591672252615957,3.259313566602893,2495310
0,0,0,0,0,0,0,0,0,0,0,0,0.8661357839269379,0.21130234137801424,-0.08245193749093263,-0.2010289431844882,3.2584658096391923,3.2587293814098093,1.1011060835249522,-0.1935364238663225,-0.13783308718598927,-0.1123685136280672,3.2592195462250166,3.2590197037481907,2496366
0,0,0,0,0,0,0,0,0,0,0,0,0.5115699901068198,0.33508311928309426,0.20981139061586743,-0.6520486297665392,3.2587643931823242,3.259114510907472,0.7241831093052756,0.3443034105662597,-0.15020797851180773,0.4334048311000861,3.2591609310103573,3.25900160777588,2497423
0,0,0,0,0,0,0,0,0,0,0,0,0.5879794464086826,0.14766982169983645,-0.15313126482144174,-0.263657529790107,3.259161717791762,3.2587891767965766,0.4234787968967911,-0.1711473788198684,-0.15140073912152519,-0.0247375875398621,3.2595047544842664,3.259641261058004,2498479
0,0,0,0,0,0,0,0,0,0,0,0,0.3987923501482427,1.2686649523574056,-0.8377892300831353,0.49434655837375624,3.2585350464028173,3.2588076661595897,0.5840978603479695,-0.11320643582420775,-0.12673042139177576,0.038416569044181,3.259318680682025,3.2593674611291243,2499536
0,0,0,0,0,0,0,0,0,0,0,0,1.526317373075172,0.12053176409384776,-0.8405740428655198,0.086348079007635,3.258852119308963,3.258698303544319,0.6215160037894254,-0.16620049073701984,-0.11624616578175613,0.14500302612817598,3.259496886670218,3.259140868084534,2500592
0,0,0,0,0,0,0,0,0,0,0,0,0.2983888147340792,-0.4595472168382665,-0.3157546539014165,-0.24692504965365525,3.259110183609746,3.258937091700684,0.7159356732291786,-0.11499046265965254,-0.14669067224152949,0.27667758186788344,3.259321041026239,3.2593194674634294,2501649
0,0,0,0,0,0,0,0,0,0,0,0,0.05792442058615929,-0.24535502736032333,-0.5256219059970266,-0.4968001361847086,3.2587683270893484,3.258610577417681,0.5223225381758855,-0.16140781180951735,-0.1253881723151412,-0.06994329332629362,3.2593064855702503,3.259307665742357,2502705
0,0,0,0,0,0,0,0,0,0,0,0,0.22872325524368944,-0.3238596825432399,-0.3821133711473192,-0.7621858313305176,3.2588178943178523,3.258961088533531,0.5450243288307581,-0.17622015192748924,-0.14686769805761551,0.6240034132007852,3.2592982243654993,3.2590783189628505,2503762
0,0,0,0,0,0,0,0,0,0,0,0,0.2243994980334637,-0.3101252329498807,-0.5857434136561648,-0.775610289050375,3.258913094867837,3.258759279103193,1.2810795761441678,-0.07272653254586846,-0.16517020048739914,0.6530478421506692,3.259178633591966,3.2589874457105927,2504818
0,0,0,0,0,0,0,0,0,0,0,0,0.5169248243480712,-0.5397450256043702,-0.006190789483879743,-0.31369604035568716,3.2587427566936915,3.258629853562099,1.118041159873147,-0.05107824219205882,-0.14062419421961236,0.8360240860014064,3.258900112974657,3.259286422644427,2505875
0,0,0,0,0,0,0,0,0,0,0,0,0.4121345892112957,-0.772175988218306,-0.5109480394063043,-0.43313575185963527,3.2587726543870748,3.2588678549370593,1.1169290443574242,0.023497226655152637,-0.1324184575579712,1.0392237590818116,3.259281701955998,3.2592002700805986,2506931
0,0,0,0,0,0,0,0,0,0,0,0,0.37117750301092894,-0.1715148057359225,-0.7145265477331337,-0.3868761523814383,3.259007508636416,3.259368641301231,0.47713610853387217,0.2957369680091104,-0.12893301593458842,2.0592158268947394,3.2592919301142604,3.259248657136995,2507987
0,0,0,0,0,0,0,0,0,0,0,0,0.4202215218808081,-1.048894876109943,0.08215296055709845,-0.7669364174528619,3.2586841414790317,3.2584992478488974,0.10518165888567672,-0.2823400476384219,-0.10226506021798373,-0.35906854379994196,3.259086580167601,3.259038979892609,2509044
0,0,0,0,0,0,0,0,0,0,0,0,1.2902786243294029,-0.7136898057091005,0.7339533607904148,-0.9030047539478248,3.25887611614181,3.258668012460233,-0.3383545563643642,-0.08848025661471565,-0.1424491336881082,-0.38011376620695186,3.25929665080269,3.2590704511488022,2510100
0,0,0,0,0,0,0,0,0,0,0,0,2.526082077751407,-0.6776477429446868,-0.28885223732617343,-0.3406720209922815,3.2589213560725874,3.2585543225472353,-0.7457019741179912,-0.25310639776067706,-0.13251483828006247,-0.5250664383252189,3.259582252452642,3.2593619536592904,2511156
0,0,0,0,0,0,0,0,0,0,0,0,0.5431997827529649,0.3171716472115096,-0.3831432680062375,-0.11810690380417153,3.258959121580019,3.258555502719343,0.0966403599548769,-0.16251245290189417,-0.09890747057288533,-0.3252105862153275,3.2590157698411666,3.2589878391012954,2512213
0,0,0,0,0,0,0,0,0,0,0,0,0.6581119606628371,0.33116612805916407,-0.2868841036419992,-0.3424285104785574,3.258849758964748,3.258690042339568,-0.22968430872968537,-0.195535242025285,-0.15609900428044846,-0.40664560874052147,3.259252197653317,3.259163684745274,2513269
0,0,0,0,0,0,0,0,0,0,0,0,0.8490197478556333,0.19519102516067327,-0.02332767526241246,-0.4796483015594841,3.2587962578292196,3.259027571562239,0.18220598485541162,-0.2503121436014346,-0.14509350598973106,-0.006178987762807341,3.2592183660529095,3.2592659663279013,2514326
0,0,0,0,0,0,0,0,0,0,0,0,0.7466472919758905,0.22851200443649344,0.21152106660855607,-0.3824092009555341,3.2589886258827,3.2586274932178845,0.10317536630336836,-0.16283149276155146,-0.12870760306210555,-0.18350299400126863,3.2592958640212846,3.2592222999599336,2515382
0,0,0,0,0,0,0,0,0,0,0,0,0.8006114483608542,0.18095067512401045,0.015175439736299482,-0.6058850176197311,3.2589166353841583,3.2588969658490377,0.5622123554006047,-0.2610198451304251,-0.15551481908736456,-0.16450419002821326,3.2591007422328877,3.259023637655215,2516438
0,0,0,0,0,0,0,0,0,0,0,0,0.2593502949893826,0.04864197357201261,-0.08521078648695783,-0.3964642639713602,3.258788783405874,3.2588851641279653,1.4773897978532071,-0.12617338015715837,-0.12278510603727175,1.5892303811586357,3.25935054532892,3.2592384289787324,2517495
0,0,0,0,0,0,0,0,0,0,0,0,0.627509704531396,-0.09171392818855383,-0.05214236404208708,-0.6136391417550017,3.259081859479172,3.2588273356947104,1.5004649162846704,-0.4122486725149956,-0.1178972265597852,0.20692626320436752,3.259127492800652,3.258953614110185,2518551
0,0,0,0,0,0,0,0,0,0,0,0,0.30462484414873653,0.46224351671260794,-0.2785792325233498,0.7057177431246928,3.2588717888440835,3.2586467693623025,0.9672926625362233,-0.1645785408709694,-0.13703489745079248,0.5215825702646458,3.25952167028447,3.2594260763437837,2519607
0,0,0,0,0,0,0,0,0,0,0,0,-0.1784550045078998,-0.4984692929350487,1.5246670990785478,-2.170956488961755,3.2586825679162224,3.2586577843019704,1.1066233881263003,-0.095311092771422,-0.15484448133045212,0.6807590700100744,3.259115297688877,3.25922662725766,2520602
0,0,0,0,0,0,0,0,0,0,0,0,0.01499487340389173,0.533370129271761,-0.9715255464941914,-0.9686899863111956,3.2587832759360404,3.2587710808242654,1.1268200667882045,-0.13046212559486933,-0.1442957096452367,0.3592487167416473,3.2588942121141207,3.2590071152457134,2521596
0,0,0,0,0,0,0,0,0,0,0,0,0.5578051993614672,-0.2812251783877824,-0.5994204282069716,-0.4043438797407007,3.2587301681912146,3.258674700102174,0.7080875287160312,-0.1745399802374816,-0.13871900304782425,-0.017003526330414572,3.259486265121253,3.25911254395396,2522590
0,0,0,0,0,0,0,0,0,0,0,0,0.2896752106756223,-0.028341439764671295,-0.8640047864919645,-0.20686292730127898,3.2588399241971877,3.2585621903612836,0.4328379550979084,-0.16519380392954394,-0.15308209098364006,0.17941487782178853,3.259097988497971,3.259348184984706,2523585
0,0,0,0,0,0,0,0,0,0,0,0,0.20247858792288156,-0.16028782847974637,-0.7731429425648382,-0.9056805975056407,3.259134573833295,3.2588017652990535,0.6216241862325891,-0.15390663789589856,-0.1307457602913094,0.3133211390162872,3.2592726539698424,3.259381229803709,2524579
0,0,0,0,0,0,0,0,0,0,0,0,0.6035227064517387,-0.3259902865875109,-1.2988911269773395,-0.5340447943264001,3.2588643144207374,3.258531505886496,0.659293706332887,-0.07308333791295742,-0.14354354662222224,0.64285705600465,3.259706957305307,3.259412701059902,2525573
0,0,0,0,0,0,0,0,0,0,0,0,-0.058074695834481216,-0.06995509504736602,-0.778720042552953,-0.7438467435654096,3.258710892046796,3.258771474214968,0.6563849754792422,0.042874079093227276,-0.13468360122246759,1.8778709742869109,3.2591373275682125,3.259448106223119,2526568
0,0,0,0,0,0,0,0,0,0,0,0,0.465768297406232,-0.36408388186501045,-0.6605010223985938,-0.40117629780486797,3.2591479491171773,3.258853692871772,0.1743283360395832,-0.41437455587083766,-0.07811480499682485,0.7694556915111174,3.259446139269607,3.259403653073746,2527562
0,0,0,0,0,0,0,0,0,0,0,0,0.36420150568503207,-0.44973172542234957,-0.6680773339363734,-0.4295138036625151,3.2584441731505596,3.258585400412726,0.049055427200249094,-0.03951176875969991,-0.14301837003450035,0.07163998742580263,3.259441418581178,3.259153063196309,2528556
0,0,0,0,0,0,0,0,0,0,0,0,-0.08238152055520064,-0.2201257014424445,0.6800328707734192,-0.9330928484312114,3.258848578792641,3.258459515387954,-0.18406908322204152,0.04080327043572311,-0.1364278955969686,-0.34093677293500574,3.2589036534909788,3.259267539890711,2529551
0,0,0,0,0,0,0,0,0,0,0,0,0.5363134785072182,-1.30296626126364,0.8453183347366255,-1.0367988987921355,3.258941025607708,3.259022064092405,0.018849315506138265,-0.190270100864184,-0.1600384187744163,-0.3504875124081984,3.2591038893585074,3.2592258404762555,2530545
0,0,0,0,0,0,0,0,0,0,0,0,0.6518747510760725,0.02373798176502964,-0.2778530332866947,-0.2331595221948054,3.258902079928169,3.258617658450324,-0.4776101443302803,-0.03955425495556056,-0.13606597615074828,-0.27380582974026557,3.2596601438117196,3.25922662725766,2531539
0,0,0,0,0,0,0,0,0,0,0,0,0.26555563992925163,-0.12125953689331256,-0.1281780991766571,-0.43131081239113955,3.258822615006282,3.2590004276037723,-0.14008328200379394,-0.14200499558508342,-0.12699281299028553,-0.050175803920722475,3.25904409397174,3.2591168712516865,2532534
0,0,0,0,0,0,0,0,0,0,0,0,0.49429856470806177,-0.056465334470907985,-0.3954571837731819,-0.4030850294929778,3.258928043714528,3.2590342592041797,0.2542657201606893,-0.17532282773528426,-0.1293496166884442,0.30888605223727844,3.2593670677384217,3.258930404058743,2533528
0,0,0,0,0,0,0,0,0,0,0,0,0.7571535774652454,-0.016615249707132542,-0.43889184461734826,-0.39872508033813003,3.2588654945928446,3.2586711595858526,0.2428156903762448,-0.12056992299198185,-0.13643812375523134,-0.019742705791319107,3.2594174217483305,3.2590464543159547,2534522
0,0,0,0,0,0,0,0,0,0,0,0,0.591037272338542,-0.005776155683536014,-0.4701258862168653,-0.37299142753975717,3.259012622715547,3.258741969912287,0.26067602165651577,-0.08196019911291588,-0.14634291486059603,-0.2088420759251208,3.2590452741438476,3.2592199396157193,2535516
0,0,0,0,0,0,0,0,0,0,0,0,0.9136841313462414,-0.012077881345496337,-0.1513633670047959,-0.4697128259793312,3.2588407109785926,3.258911127914325,0.9922820201256298,-0.40774710270727904,-0.11496095835697154,0.08652825194934034,3.259233708290304,3.259058256037027,2536573
0,0,0,0,0,0,0,0,0,0,0,0,0.7166252871305092,-0.04140201108479631,-0.30634671525319995,-0.06206839824538209,3.2590614031626464,3.2586865018232465,0.5296419655849892,-0.3596185040019159,0.301528859320743,-0.25559538073484667,3.259378869459494,3.2590952347630537,2537630
0,0,0,0,0,0,0,0,0,0,0,0,0.6474439915947903,0.23514850558620756,-0.5687823735216109,0.045433479003128885,3.258828515866818,3.258257312566913,0.8412919808974243,-0.057396490263520505,-0.11398141550796216,0.4216715600099039,3.258814353801531,3.2588513325275574,2538686
0,0,0,0,0,0,0,0,0,0,0,0,-0.05230876830920795,1.2466275985989093,-1.1712531532350963,-0.7316421904137361,3.258880443439536,3.258968956347579,1.4008186579726525,-0.1450246626168087,-0.1433842233877448,0.56093855630619,3.2592777680489737,3.2592565249510432,2539743
0,0,0,0,0,0,0,0,0,0,0,0,2.3594913434375933,-0.8947502368390842,0.38640919761767356,-0.38761179299495135,3.258986658929188,3.2586589644740775,1.2307161248583942,-0.20756827683070622,-0.14381655976969715,0.6749994367360397,3.25923960915084,3.2592443298392686,2540799
0,0,0,0,0,0,0,0,0,0,0,0,0.264925034633283,0.25239239363579674,-0.2952314609565092,-0.7408357311291374,3.2591377209589147,3.258936304919279,0.9128505364478273,-0.25479010996700646,-0.11037480954823607,0.1479349670332631,3.259311599649381,3.2589064072258953,2541856
0,0,0,0,0,0,0,0,0,0,0,0,0.6049762850971562,-0.17287672434767773,-0.4548505252421528,-0.5187076710114087,3.2589441727333273,3.259110183609746,0.2377499983012674,-0.23693725311008132,-0.1402579474756655,-0.07030560616321636,3.2594060134179608,3.2590452741438476,2542912
0,0,0,0,0,0,0,0,0,0,0,0,0.24504110157979744,-0.2709014261843474,-0.4223088529478136,-0.399481570658871,3.2589839051942713,3.2589957069153437,0.33458311970032684,-0.09295546924537053,-0.12879690275155337,-0.15441096477639255,3.259378476068792,3.259405226636556,2543969
0,0,0,0,0,0,0,0,0,0,0,0,0.23480153498667894,-0.39592099141132725,-0.5063721187558315,-0.6298853909832706,3.2588159273643402,3.2585625837519863,0.29068897851574166,-0.17487475572523542,-0.13849004965901965,-0.07731110779179427,3.2589937399618316,3.258876509532512,2545026
0,0,0,0,0,0,0,0,0,0,0,0,-0.08299324309745348,-0.4804527855459196,-0.55395390438484,-0.6010093332540194,3.2586031029943348,3.2587112854374984,0.290698813283302,-0.06787759874792085,-0.14638225393083737,0.4154552001303673,3.2591920088758477,3.259288389597939,2546082
0,0,0,0,0,0,0,0,0,0,0,0,0.042871325358310376,-0.5625428035906319,-0.5291281973276374,-0.4481325922170391,3.258813567020126,3.258771474214968,-0.554747373431608,0.1833243946223729,-0.07282133970515009,-0.9167380233690766,3.25933913699855,3.2593965720411027,2547139
0,0,0,0,0,0,0,0,0,0,0,0,0.1359526796284532,-0.19870872482165394,-0.4165212889339076,-0.6616190387748525,3.2589579414079117,3.2587006638885336,-0.30544624393537567,-0.0031825307825244405,-0.13646802144861475,0.1247264891536819,3.2594520401301432,3.2592215131785287,2548195
0,0,0,0,0,0,0,0,0,0,0,0,0.4306412614156319,-0.14112301363027258,-0.925024798515415,-0.09106011284114275,3.2587427566936915,3.2588749359697022,-0.3204454446369939,-0.10244090586196254,-0.13539996569156237,-0.36734666435082725,3.2593792628501967,3.259324581542561,2549252
0,0,0,0,0,0,0,0,0,0,0,0,1.1258668811162567,-1.0740470974501488,0.1038834695677125,-0.36875342950265755,3.2588910649885015,3.2585582564542594,-0.3388285921607723,-0.08959866638167696,-0.13764268608602118,-0.18712572897979365,3.2592459034020784,3.2591943692200624,2550308
0,0,0,0,0,0,0,0,0,0,0,0,0.862978430149368,-0.03161877770647737,-0.1925631752685517,-0.21260367782159778,3.259149129289285,3.259022064092405,0.3004942417733958,-0.3158313650883871,-0.15617414190460943,0.3823116400613355,3.259494919716706,3.2588446448856168,2551365
0,0,0,0,0,0,0,0,0,0,0,0,1.0175498983323452,0.22750492423831511,-0.1948306792772626,-0.36521999421358037,3.258791537140791,3.2588658879835473,0.40875418290545734,-0.19879959807391143,-0.15814660288651022,0.45479309019960046,3.2592805217838907,3.2593375634357407,2552421
0,0,0,0,0,0,0,0,0,0,0,0,0.8966499205410385,0.33754731864301185,-0.20853208405161905,-0.23628422454407508,3.258662504990399,3.258615691496812,1.0919019212605858,-0.06688625417783906,-0.1452968889828788,0.06375565096803319,3.2590149830597617,3.2590429137996333,2553478
0,0,0,0,0,0,0,0,0,0,0,0,0.7520379247710615,-0.027758828134397045,-0.15271191033266907,-0.6173570772835107,3.25893158423085,3.2586872886046514,0.723587909172524,-0.17356830520252048,-0.17693336927096479,0.44427264264495875,3.258971710082496,3.2591298531448665,2554535
0,0,0,0,0,0,0,0,0,0,0,0,0.8042632942513578,0.06984101174366614,-0.2495363771362754,-0.7986130235925941,3.258769507261456,3.258763213010217,0.586610446764284,-0.0443072014221193,-0.15077485451398545,0.07485792337154427,3.2590834330419813,3.2591542433684157,2555591
0,0,0,0,0,0,0,0,0,0,0,0,0.560368533178393,-0.1255718857731683,0.0065562494464217955,-0.5646222668435892,3.2585161636491016,3.2586255262643724,1.4636939005486844,-0.15647744613617015,-0.13660020072462567,0.14274653705913268,3.2588261555226032,3.2592958640212846,2556648
0,0,0,0,0,0,0,0,0,0,0,0,0.739422278335366,0.10601250004917383,-0.04775055024034384,-0.6107846988182901,3.2591542433684157,3.259049601441574,2.360603458953316,-0.23935778610203098,-0.1558594293426787,-0.16234762219758297,3.2594528269115477,3.2593867372735423,2557704
0,0,0,0,0,0,0,0,0,0,0,0,0.6474707421625545,-0.021591248701959692,-0.3533561174101969,-0.8055146700757349,3.2587376426145602,3.258563370533391,1.20571575232932,-0.0828410008956195,-0.13915094603907416,1.0266033919576874,3.259611756755323,3.2593379568264433,2558761
0,0,0,0,0,0,0,0,0,0,0,0,1.4217348482292709,-0.741487186132334,-0.13285512123765006,0.25686013184310574,3.258620412185241,3.2585641573147957,0.9728441921286811,-0.050103813422180815,-0.13753214329864302,0.41974787947510234,3.259169192215108,3.259134573833295,2559817
0,0,0,0,0,0,0,0,0,0,0,0,1.0992500661909659,-2.9825034120682967,0.9045728092876445,-1.2938250415116597,3.259081072697767,3.258892638551311,1.2845610838605266,-0.15231655267674357,-0.15329491535364573,0.9073568352886241,3.259507114828481,3.2594854783398484,2560874
0,0,0,0,0,0,0,0,0,0,0,0,0.3194198750758022,-0.3600834918121686,-0.45992172478696397,-0.005794645046549445,3.2588902782070965,3.2585602234077715,1.6231339720647302,-0.18083895216452503,-0.12620209767843457,1.0513366521998229,3.259252984434722,3.2591927956572526,2561931
0,0,0,0,0,0,0,0,0,0,0,0,0.332315615691616,-0.2459459001953483,-0.16304864442928366,-0.315241279034767,3.258620018794539,3.2587478707728232,1.2476877865419134,-0.1584770510765375,-0.12553451365643903,0.7163983006952167,3.25890876757011,3.25905550230211,2562987
0,0,0,0,0,0,0,0,0,0,0,0,-0.017218711044634707,-0.16808168507596075,-0.6693255626351311,-0.5179370186253808,3.259212071801671,3.259228594211172,0.6793609594536971,-0.17132007733822788,-0.133193830632428,0.3831173042198782,3.259206170941135,3.259356052798754,2564044
0,0,0,0,0,0,0,0,0,0,0,0,0.339205067062982,-0.5553996152162093,-0.8700244510202945,-0.6281670603951287,3.259113330735365,3.258725447502785,0.23611900044906145,-0.16198570275136265,-0.13132522479596434,0.035889033781174876,3.259594840955119,3.2591251324564374,2565100
0,0,0,0,0,0,0,0,0,0,0,0,0.4782368157192249,-0.27252612978531476,-1.0561568684764944,-0.534953526848975,3.2588529060903673,3.2585676978311175,-0.0815526463452156,-0.17462691958271498,-0.10294051205402756,-0.6824703195655727,3.259105069530614,3.2589642356591506,2566157
0,0,0,0,0,0,0,0,0,0,0,0,0.39776205989862196,-0.32656817752935613,-0.7510076345214407,-0.3984422324230948,3.259140081303129,3.2588084529409946,-0.4667442997389197,0.28704539382998867,-0.1317382850334984,-0.290705500925243,3.259562582917521,3.259412701059902,2567213
0,0,0,0,0,0,0,0,0,0,0,0,0.6004424572518416,0.008537758414478113,-0.6482063827760676,-0.08039293055450088,3.258881623611644,3.258991379617617,1.5233791379188462,-0.4357521934213869,-0.09763406486917314,-0.14778469178494116,3.2593698214733386,3.2591585706661426,2568270
0,0,0,0,0,0,0,0,0,0,0,0,0.48581942150824325,-0.035315470137056125,-0.054713172282358676,-0.4048733836261491,3.2587203334236543,3.2585094760071605,-0.6323311009801746,-0.2836850504499734,-0.12357385439561062,0.13458328659335217,3.2592222999599336,3.2590122293248447,2569326
0,0,0,0,0,0,0,0,0,0,0,0,0.16950536602799487,1.60749551147169,-0.6387256668479045,-0.3461193020485999,3.2586609314275896,3.2588112066759116,-0.13534056369549796,-0.19409897257077366,-0.13883898721206034,-0.0743508427561334,3.2592439364485664,3.25948901885617,2570321
0,0,0,0,0,0,0,0,0,0,0,0,0.3156897444355183,-0.09453414613415552,0.009461833174447199,-0.5021156313557186,3.2588387440250806,3.258784456108147,-0.07954438680939517,-0.11072138675706228,-0.15748609989715814,-0.2458648617106511,3.2591573904940354,3.25922505369485,2571315
0,0,0,0,0,0,0,0,0,0,0,0,0.7056992537616793,0.03595118951215619,-0.2678951344365042,-0.377635011391045,3.258791537140791,3.258664078553209,-0.0014044048076158533,-0.27224013474466024,-0.13654709297979986,-0.8019678595027755,3.2591794203733704,3.2589807580686516,2572310
0,0,0,0,0,0,0,0,0,0,0,0,0.6848680358967824,-0.04436306290186201,0.06222772147985953,-0.2643231468585905,3.2586703728044473,3.2587093184839864,-0.67390738414614,-0.22614497258007196,-0.147151726144758,-0.6189680122098936,3.259287602816534,3.259287209425832,2573304
0,0,0,0,0,0,0,0,0,0,0,0,0.7641071515211048,-0.18109819663741547,-0.4992761372656986,-0.4612714482869444,3.258668012460233,3.2587856362802547,-0.06447791629766421,-0.24292859350783746,-0.11915765037031774,-0.28611148430245925,3.259245510011376,3.259587759922476,2574299
0,0,0,0,0,0,0,0,0,0,0,0,0.3249139696257078,0.18665444691830238,-0.24949467772181957,-0.57772453757817,3.258995313524641,3.258638901548254,0.5582178662082989,-0.17342314403332995,-0.16163361807270266,0.2537023846748334,3.2591333936611884,3.258907587398003,2575293
0,0,0,0,0,0,0,0,0,0,0,0,0.4838099818003156,0.3235788015817167,-0.23670633276776465,-0.2672365984006641,3.2588234017876863,3.2590098689806304,1.2546862071378477,-0.21682554683989844,-0.16308444298320326,0.32460712487782534,3.2592348884624105,3.25940916054358,2576288
0,0,0,0,0,0,0,0,0,0,0,0,0.4155342716615524,0.09420605828834275,-0.43167469879087195,-0.15664739091961274,3.2589347313564696,3.2587018440606403,2.215841187935017,-0.22625787571166464,0.08027924064150341,0.511372114583506,3.259406406808663,3.2596046757226795,2577282
0,0,0,0,0,0,0,0,0,0,0,0,0.4539988343714278,0.14597548794454193,-0.3222444203191304,-0.6050907617915584,3.25859248144537,3.25870341762345,3.1685398421931077,-0.28151825446108036,-0.1596454214627053,0.502726960507269,3.259067697413885,3.2589827250221637,2578276
0,0,0,0,0,0,0,0,0,0,0,0,0.474999603629065,0.5119818701722467,-0.374300631797389,-0.20241013794066165,3.258677453837091,3.258625919655075,0.7871303423798492,-0.10403453159743924,-0.15657185990474937,0.26995964884276974,3.2593938183061857,3.2591337870518906,2579271
0,0,0,0,0,0,0,0,0,0,0,0,-0.06876194104694618,0.5822748878329859,-0.025937822572925394,-0.9148379462764199,3.258727414456297,3.2587537716333594,0.5113736881463156,-0.13869579299638188,-0.1533708397592115,-0.15037831668595272,3.2591451953822608,3.2595094751726954,2580265
0,0,0,0,0,0,0,0,0,0,0,0,0.9632049397474455,0.24672914108385335,-0.8752931326977172,-0.6004825831034878,3.259592087220202,3.258843071322807,0.2385190771244856,-0.13049910432089618,-0.14091687690220797,0.07275485667644223,3.2594233226088667,3.2589272569331236,2581260
0,0,0,0,0,0,0,0,0,0,0,0,1.0614924265733272,-0.6799604868841751,-0.33821411588360256,-0.9956226939705245,3.2588013719083513,3.2589245031982066,0.4966329451361829,-0.1271324666896423,-0.1579526612702204,-0.03898777234408526,3.2595421266009956,3.2593544792359443,2582254
0,0,0,0,0,0,0,0,0,0,0,0,-0.2354986233113555,-0.6082937488906084,-0.4993642567830392,-0.6888609515262785,3.259035045985585,3.2589603017521265,0.21308007396222042,-0.06086462269599708,-0.15475872215732597,-0.20876851186376952,3.259284455690915,3.2591566037126305,2583249
0,0,0,0,0,0,0,0,0,0,0,0,-0.15276029738906588,-0.3780885908709276,-0.8893804537511413,-0.6769962879414901,3.259079105744255,3.2587777684662065,0.2433809928156129,-0.1721155133385078,-0.13890547024076821,0.13704630578116245,3.2592199396157193,3.25916958560581,2584243
0,0,0,0,0,0,0,0,0,0,0,0,0.0987359522266331,-0.577904317129173,-0.35252488285599737,-0.40057598359298513,3.258599562478013,3.258992166399022,0.06357036394719646,-0.036155359286708745,-0.1529306355632109,0.2101036799077606,3.2594933461538966,3.2592994045376065,2585237
0,0,0,0,0,0,0,0,0,0,0,0,0.16218869235380795,-0.4171542545740907,-0.5657965380902932,-0.4736872522458138,3.2591042827492096,3.2588702152812736,-0.19810605026555658,0.1152119416251113,-0.1578905055392391,0.7202118301644123,3.2591357540054027,3.2589846919756758,2586294
0,0,0,0,0,0,0,0,0,0,0,0,0.444760053725249,-0.3696240031270985,-0.8741924255123644,-0.35134943143718617,3.259048027878764,3.2586865018232465,0.8865153892654644,-0.7951578730532971,0.7423034718398418,-1.6035313133634703,3.259232134727494,3.2589481066403514,2587351
0,0,0,0,0,0,0,0,0,0,0,0,0.6883613453342134,-0.4495755493134915,-0.8655032116774573,-0.6662720640029983,3.2587407897401794,3.258618051841027,-0.06306761062951215,0.20808007813454607,-0.152639526443425,-0.4984220860507591,3.2592565249510432,3.259401686120234,2588408
0,0,0,0,0,0,0,0,0,0,0,0,0.3075658330399791,1.1378035351995868,-2.0513873519167127,2.5249908119429123,3.2590869735583032,3.2587167929073324,0.26867994888781893,-0.20772287937675468,-0.13404158759612889,-0.26602770877214776,3.259349365156813,3.2595374059125666,2589465
0,0,0,0,0,0,0,0,0,0,0,0,0.6790257905752409,0.6857673270424994,-0.03636936382882164,-0.3027589920471897,3.259173519512834,3.2589835118035686,-0.4244260817082025,-0.2061477430042914,-0.12045151239055542,-0.2544549410885502,3.2591337870518906,3.25905864942773,2590522
0,0,0,0,0,0,0,0,0,0,0,0,0.8897022473457155,0.08966082211265826,-0.030916575302669443,-0.22539910380829617,3.2585645507054983,3.258443386369155,0.034724597302031195,-0.04011837722282138,-0.14204079413900306,-0.06298775231692222,3.259609789801811,3.259709711040224,2591578
0,0,0,0,0,0,0,0,0,0,0,0,0.7169836660604078,0.16437869839414337,-0.17441055469638758,-0.5138284461293752,3.2587533782426568,3.2592053841597295,0.21069573291489277,-0.1796930050483948,-0.1333555142111199,0.3137880937800519,3.2593973588225076,3.2590853999954934,2592635
0,0,0,0,0,0,0,0,0,0,0,0,0.6691638790564393,0.0718178000232935,-0.27932234756020874,-0.4411994744777053,3.258990592836212,3.2588788698767264,0.12895229207900666,-0.1697354995889067,-0.1575466820653298,-0.10842516522707524,3.259123558893628,3.2590759586186357,2593692
0,0,0,0,0,0,0,0,0,0,0,0,0.6620737984268424,0.23245692640029506,-0.4270138057486779,-0.41065189965389964,3.2588977526304426,3.2585838268499163,0.4555574483343897,-0.0962646718340721,-0.12745229333070437,0.22589556287474188,3.2592699002349255,3.2592954706305823,2594749
0,0,0,0,0,0,0,0,0,0,0,0,0.6417547752564877,0.20469967182870766,-0.4975566265054496,-0.7453569704719746,3.2587006638885336,3.2587742279498846,0.9341337602297974,-0.21774332734862892,-0.15607264710338675,0.014215566422410775,3.259433157376427,3.2592514108719124,2595806
0,0,0,0,0,0,0,0,0,0,0,0,0.5860282285247121,-0.019691171609302952,-0.17901007878900513,-0.4793170665880521,3.2588281224761153,3.2589642356591506,1.0895828830698588,-0.300431692651712,-0.1270773919913044,0.2775021287801419,3.2591298531448665,3.2588922451606086,2596862
0,0,0,0,0,0,0,0,0,0,0,0,0.27636719660367925,0.31160634894446715,-0.08922219147946732,-0.9671966752048343,3.2590118359341425,3.2585598300170693,1.6928369036718491,-0.4909460891420947,0.3022526982131837,0.3211602355432791,3.259442205362583,3.2594866585119555,2597919
0,0,0,0,0,0,0,0,0,0,0,0,1.0372036978249188,0.034208862091167226,-0.17876184925578226,0.16758601279091986,3.2588678549370593,3.2589477132496487,1.069920428981832,-0.12110729469147857,-0.16121662392814443,0.7200678491673289,3.2595488142429367,3.2593359898729313,2598976
0,0,0,0,0,0,0,0,0,0,0,0,1.8896530258241921,-1.2017956139797703,-0.5064421423008612,0.8667754372090622,3.258786423061659,3.25894299256122,1.0425691536151354,-0.10431659273106964,-0.14083426485470116,0.23952458375985428,3.2593643140035047,3.2590417336275257,2600033
0,0,0,0,0,0,0,0,0,0,0,0,-0.1259475738939731,-0.2383770630809144,0.15178783557269998,-0.3419324448028141,3.2591239522843303,3.2588647078114397,0.8560897655594069,-0.19524373951479668,-0.16734997836947182,0.2989403484988628,3.259232528118196,3.259309632695869,2601090
0,0,0,0,0,0,0,0,0,0,0,0,-0.08551881140694753,-0.1331478039202456,-0.307434440545373,0.06652787524794045,3.2590263913901314,3.258863921030035,0.8639674143752353,-0.1494562088794957,-0.1260183842204075,0.1407921720495429,3.2592014502527054,3.2597986173389693,2602146
0,0,0,0,0,0,0,0,0,0,0,0,0.14142435090832126,-0.08666003783464883,-0.31110044850116353,-0.8497841059904224,3.258693976246592,3.2587742279498846,0.43279979619977427,-0.07684415302802956,-0.14080200681710323,0.0707465971406218,3.2591503094613916,3.258936304919279,2603203
0,0,0,0,0,0,0,0,0,0,0,0,0.08729142991202234,-0.394638931112162,-0.4131696001493454,-0.7610556198424839,3.259053535348598,3.2588379572436756,0.8199812197662854,-0.2043668632944659,-0.15053173905989395,0.21322838225703025,3.2591310333169736,3.259230561164684,2604260
0,0,0,0,0,0,0,0,0,0,0,0,0.1531658832032541,-0.08575681278190765,-0.7789910887469159,-0.8693584405611087,3.258797044610625,3.2586208055759434,0.5421356609029365,-0.17296248352080384,-0.13856046659475169,0.015287556086487302,3.259333236138014,3.2594898056375747,2605316
0,0,0,0,0,0,0,0,0,0,0,0,0.3203569317289509,-0.4863485320029893,-0.8063809164024491,-0.9130558863944872,3.2589732836453056,3.258633000687718,0.48062745101779114,-0.11426229646948534,-0.14240940122716442,0.294214939381473,3.2593588065336707,3.259309632695869,2606373
0,0,0,0,0,0,0,0,0,0,0,0,0.6601139259474189,-0.40476048049455643,-0.9996691107355488,-0.6030801419115236,3.2593269418867754,3.259009475589928,-0.49272106799138404,0.0580329964200254,-0.1183437250070244,-0.905896962391968,3.259054322130003,3.2592175792715046,2607430
0,0,0,0,0,0,0,0,0,0,0,0,0.5649401265311392,-0.854780561301775,-0.44894927131524937,-0.09687796793913458,3.258847005229831,3.2584760377974553,-0.060706479633626895,0.10420841028790595,-0.1358149928826085,0.5599369835778455,3.25937493555247,3.2595027875307543,2608486
0,0,0,0,0,0,0,0,0,0,0,0,-0.1987775681945763,-0.1173925062885888,-0.002027929070941099,-0.9122097029935958,3.2586833546976273,3.2588340233366515,-0.35132189408801723,-0.146418052484757,-0.09245625644400791,-0.3104187024138811,3.259083039651279,3.259138507740319,2609543
0,0,0,0,0,0,0,0,0,0,0,0,-0.3600122880950317,-0.360442657523472,0.632100180637858,-1.3327258745105117,3.2592034172062174,3.2589886258827,0.014811553336567083,-0.14409232665208896,-0.16655493575989433,-0.260043449407035,3.2591975163456812,3.259269113453521,2610599
0,0,0,0,0,0,0,0,0,0,0,0,0.14606046033626321,0.13253804833150484,-0.5162454386050032,-0.1882657752353877,3.2586235593108603,3.258482332048694,0.292325090447079,-0.14030436757855028,-0.15477052387839837,0.024154582518885435,3.259069664367397,3.2596569966861004,2611656
0,0,0,0,0,0,0,0,0,0,0,0,0.6744038432125858,0.11676937541596595,-0.30640611724926436,-0.3322503128350154,3.2587663601358363,3.2586526702228387,0.1719719257321269,-0.1690663420041015,-0.12085906515825572,-0.36584823916533454,3.259056289083515,3.259281701955998,2612713
0,0,0,0,0,0,0,0,0,0,0,0,0.7802357769293519,-0.03459674532374684,-0.40465190466069034,-0.53437406234432,3.258883590565156,3.259225447085553,0.19338496844589334,-0.17798647618132543,-0.1394125508561791,0.04592325042763357,3.2593631338313975,3.25935369245454,2613769
0,0,0,0,0,0,0,0,0,0,0,0,0.755204326534787,0.10593421529939356,-0.3348443311267294,-0.16231575755068747,3.2588293026482225,3.2588407109785926,0.3164993425010851,-0.19410487343130986,-0.15298531687084638,0.36683053574926083,3.2592714737977353,3.2593635272221,2614826
0,0,0,0,0,0,0,0,0,0,0,0,1.0780018541815108,0.09835869054301863,-0.5025727513519229,-0.12649832087735186,3.2591432284287487,3.2590118359341425,0.9380031511787356,-0.15440349035304668,-0.1258626015022518,0.6696741067974694,3.259079105744255,3.2590059350736063,2615883
0,0,0,0,0,0,0,0,0,0,0,0,0.8834115366234226,0.20637158231396463,-0.42065071113714114,-0.47861447079354175,3.259018523576083,3.2589146684306463,1.2815622665360291,-0.020347740691630922,-0.1573830315331258,0.659218568708726,3.259176666638454,3.2593163203378106,2616939
0,0,0,0,0,0,0,0,0,0,0,0,0.5293284331951658,-0.0096848857027156,-0.03777022812011577,-0.2759533495847403,3.2591463755543675,3.258708925093284,2.682144890087234,-0.4659075577148864,-0.16056241519003095,-0.3189175151488203,3.2594925593724917,3.259021670701703,2617996
0,0,0,0,0,0,0,0,0,0,0,0,0.606518770041319,-0.04472104844105821,-0.008014155389565871,-0.0325794378017709,3.2589044402723832,3.2587561319775737,1.4043257360846682,-0.1857563359446926,-0.12928903452027254,0.8574922034135107,3.2591156910795798,3.259210104848159,2619052
0,0,0,0,0,0,0,0,0,0,0,0,-0.5090947758072347,0.5885199652337987,0.7540619199349784,-1.5316714205350184,3.258642442064576,3.258636934594742,1.3321680464944894,-0.0881738052575356,-0.12054002529859843,0.41152444023185253,3.2594040464644487,3.259172339340727,2620047
0,0,0,0,0,0,0,0,0,0,0,0,-0.47119276180181047,1.0856308800734138,-0.3908076990613578,-0.7534891430722646,3.2588910649885015,3.2586192320131335,0.7789718126024976,-0.07698577368089839,-0.11251996904849636,0.4185991786240552,3.2592557381696388,3.2590271781715368,2621041
0,0,0,0,0,0,0,0,0,0,0,0,0.707776356670422,0.016538145129459517,-0.4428694180094502,-0.8756908506978571,3.258680994353413,3.258819467880662,1.0178402206707264,-0.1017001511693181,-0.13294127380147858,0.09884806857682092,3.2588918517699064,3.2590271781715368,2622036
0,0,0,0,0,0,0,0,0,0,0,0,0.4752671093067061,-0.7535450045520072,-0.46391109990013835,-0.5087226282027517,3.2585055421001363,3.258738036005263,0.5222446468168076,-0.16382716462935978,-0.14245660811145403,0.10870761975140807,3.2595067214377784,3.259371001645446,2623030
0,0,0,0,0,0,0,0,0,0,0,0,0.4151503223359969,-0.22470830973485822,-0.8639143066304095,-0.5615050389176653,3.258912701477134,3.259026784780834,0.6114003552675671,-0.22410288144384402,-0.12901877510771456,0.2874970063563593,3.25922820082047,3.25922820082047,2624025
0,0,0,0,0,0,0,0,0,0,0,0,0.18994752048820499,-0.33041829233387615,-0.6166804452753597,-0.5957890386329935,3.2590244244366193,3.258848578792641,0.8167522688808762,-0.18588300775086972,-0.13648021656038958,0.09534492437182955,3.2593965720411027,3.258909554351515,2625019
0,0,0,0,0,0,0,0,0,0,0,0,0.5766859861237986,-0.6822295644556956,-0.6472815212346936,-0.4998882531986538,3.2585307191050905,3.258537406747032,0.35219600822877983,-0.08992400049257283,-0.141152911323656,0.5440227561024136,3.259506328047076,3.259289176379344,2626014
0,0,0,0,0,0,0,0,0,0,0,0,0.10445152574199744,-0.5609775019857289,-0.7859997375011131,-0.6056521303239024,3.2591373275682125,3.258819467880662,1.0435459427292277,-0.2587523411217142,-0.1345765989514111,0.11365883513198317,3.259465415414025,3.2591782402012632,2627008
0,0,0,0,0,0,0,0,0,0,0,0,0.2572661110479964,-0.3228522089543591,-0.8881947741740672,-0.5320908227075127,3.2587018440606403,3.258981151459354,0.8946215980793951,-0.26731055585271785,-0.14644322948971145,0.15799514746608107,3.2591884683595262,3.259026784780834,2628002
0,0,0,0,0,0,0,0,0,0,0,0,0.41332459608609623,-0.6360840482811985,-0.2395017670991143,-0.8504206121469273,3.2588867376907746,3.2582612464739373,-0.17379804537272994,-0.2752302974737045,-0.14842985253689914,-0.503008628250197,3.2595370125218643,3.259284455690915,2628997
0,0,0,0,0,0,0,0,0,0,0,0,1.0411045600300504,0.08957152242321043,-0.717069425233534,-0.9748017042638902,3.2588969658490377,3.25908972729322,-0.7480221924808254,-0.08199403071332344,-0.1266053231484083,-0.3515146555321998,3.2590393732833114,3.25922820082047,2629991
0,0,0,0,0,0,0,0,0,0,0,0,0.8851916295518433,-0.07303849137288229,-0.0004728556243009119,-0.21629132226602105,3.259119624986604,3.2589752505988177,-0.5429932526341978,-0.12272963794823144,-0.15168870111569177,-0.3746586173365852,3.259609789801811,3.2588529060903673,2630986
0,0,0,0,0,0,0,0,0,0,0,0,0.6960096473705347,0.279334936062686,-0.13130673543295088,-0.3997022628429249,3.2591227721122227,3.258736069051751,-0.033580617139413016,-0.22790932988039608,-0.1527630511239828,-0.3339163224597361,3.2593123864307865,3.2591829608896923,2631980
0,0,0,0,0,0,0,0,0,0,0,0,0.5091832887152777,0.2318593659233291,-0.11292673503479184,-0.3816656925279728,3.2589339445750642,3.258902079928169,0.3393868135674969,-0.04669350942295902,-0.09111597432088546,-0.3724756923288932,3.2594563674278696,3.2594933461538966,2632975
0,0,0,0,0,0,0,0,0,0,0,0,0.6921040644769746,-0.15577327677885014,-0.33601152134078993,-0.5169798990464091,3.258823008396984,3.258824581959794,0.04221593644808965,-0.14895227538970413,-0.15195227288630878,0.08623124196901821,3.25958028549913,3.259276194486164,2633969
0,0,0,0,0,0,0,0,0,0,0,0,0.47610267115863214,0.16745698064052825,-0.12640075998315334,-0.23649154144424692,3.2594866585119555,3.2586318205156113,1.0728586641381577,-0.1602559638328509,-0.1572831102947128,0.378645632105545,3.2591538499777135,3.2593591999243734,2634963
0,0,0,0,0,0,0,0,0,0,0,0,0.9245460420305779,0.04751569599100303,-0.1035258774192187,-0.3139171259304435,3.2587282012377026,3.258870608671976,1.1430324844160655,-0.09711518253268987,-0.14876541480605776,0.9442482285795484,3.2590134094969523,3.259184534452502,2636020
0,0,0,0,0,0,0,0,0,0,0,0,0.41605315399803566,0.1931701771223756,-0.05606761647076802,-0.7548915809263683,3.258649129706517,3.2587388227866674,2.4981800554013316,-0.7285131607667399,0.829586247156411,-0.5656297404324698,3.259174306294239,3.258989019273402,2637077
0,0,0,0,0,0,0,0,0,0,0,0,0.3759265155704636,0.38037065033562784,-0.3699772679778657,-0.19507812202908062,3.2592132519737778,3.2587427566936915,1.9276962670917828,-0.10419385483191666,-0.16001284837875943,0.6516686143480079,3.259204203987623,3.259009475589928,2638133
0,0,0,0,0,0,0,0,0,0,0,0,0.8548761552424615,1.2511126459971242,-1.21619843437653,0.13045897846925,3.2589473198589465,3.2587616394474077,0.823580744693368,-0.09965963359589977,-0.12489840089063654,-0.10051919228067306,3.2590842198233867,3.2590169500132737,2639190
0,0,0,0,0,0,0,0,0,0,0,0,2.8539748017757893,-0.6202229285505925,-1.133782295439517,0.5811954237455634,3.258872575625488,3.2588159273643402,0.14771073433288745,-0.1510549486941038,-0.1307839191894435,0.06563251800924755,3.2596455883557303,3.259479577479312,2640247
0,0,0,0,0,0,0,0,0,0,0,0,0.6394648479777393,-0.116746558755226,-0.371043356781406,-0.6117520465555246,3.259085793386196,3.258708925093284,0.2921260347516578,-0.13915920724382486,-0.12161988277672323,-0.03989375113174333,3.259497673451623,3.259412701059902,2641303
0,0,0,0,0,0,0,0,0,0,0,0,0.42195834183196324,0.0691824757078261,-0.48779699656927544,-0.5968448992782711,3.258751017898442,3.2588056992060777,0.8384060667045196,-0.19078032860521418,-0.11430635622815563,0.5269641550736612,3.2592215131785287,3.258837563852973,2642360
0,0,0,0,0,0,0,0,0,0,0,0,0.04692718350019258,-0.41663969953533403,-0.6121879234537987,-0.6064204223657157,3.2588824103930483,3.2590393732833114,1.0972638365344807,-0.14377840087156307,-0.11171587845276337,0.08157939691297972,3.2594905924189796,3.259649128872052,2643416
0,0,0,0,0,0,0,0,0,0,0,0,0.4950007671118697,-0.4650952059144027,-0.410622788741921,-0.6445372276946578,3.258824581959794,3.258843464713509,0.9482773361536665,-0.11128196850800139,-0.13544441884093508,0.2869612082196722,3.259342677514872,3.259400505948127,2644473
0,0,0,0,0,0,0,0,0,0,0,0,-0.09110417259981306,-0.29234672693571173,-0.5235133318320908,-0.8275233063129551,3.258607036901359,3.258554715937938,0.6624022796633576,-0.04741026728275624,-0.12862656457740837,0.4667741974323031,3.2589547942822925,3.2589842985849735,2645530
0,0,0,0,0,0,0,0,0,0,0,0,-0.09430873326167263,-0.625451484376369,-0.8391700314486064,-0.875675508460463,3.2588363836808663,3.2588053058153754,0.7819072940239065,-0.15608956290359055,-0.1555860228045014,0.42339107077015287,3.2593064855702503,3.259364707394207,2646586
0,0,0,0,0,0,0,0,0,0,0,0,0.04292876040086274,-0.1890372144028204,-0.7330725590077113,-0.7173479458508427,3.2588273356947104,3.2585496018588067,-0.6283200893783676,-0.3595189761542053,0.12053805834508637,-0.6670757612080289,3.259638507323087,3.2592935036770703,2647643
0,0,0,0,0,0,0,0,0,0,0,0,0.35209608699036676,-0.6731988874910935,0.16202582860300882,-0.7726315346517008,3.258946533077542,3.25855668289145,-0.03283160124201789,-0.0633071855672819,-0.13195032262209921,0.1232917932619802,3.2593875240549472,3.259140081303129,2648700
0,0,0,0,0,0,0,0,0,0,0,0,1.430430749706119,-0.015588106583131145,-0.18590779136512176,-0.6604660106260789,3.2585763524265707,3.258847792011236,-0.16524140420453598,-0.21182201049590235,-0.13825244167476197,-0.35364525957647075,3.2593926381340785,3.259545273726615,2649756
0,0,0,0,0,0,0,0,0,0,0,0,0.8534827653745133,-0.9977049109583986,-0.29915789355729744,-0.40861728294101746,3.2588654945928446,3.2589119146957293,-0.1800092911731352,-0.11901406276393685,-0.13580161759872644,0.12463482912001957,3.2593690346919337,3.259374148771065,2650813
0,0,0,0,0,0,0,0,0,0,0,0,0.7748172133943096,-0.04236070422657778,-0.49009085775504796,-0.22371342464845476,3.259088547121113,3.2586530636135413,-0.17582479427156378,-0.09422140052573687,-0.16218633200959348,-0.1360581083367,3.2595334720055424,3.259092087637435,2651869
0,0,0,0,0,0,0,0,0,0,0,0,0.6003370285435948,0.29411973883148895,-0.18491880713925446,-0.21801712727750866,3.2588843773465603,3.2586066435106567,-0.05414000202894234,-0.21986606357885166,-0.14813598968219632,-0.6442756228775528,3.2591625045731667,3.25908972729322,2652864
0,0,0,0,0,0,0,0,0,0,0,0,0.8320323505440176,0.15759939641945317,-0.09133312598861765,-0.06195352816027738,3.258474857625348,3.258580286333595,-0.20172917863478404,-0.13281381521389665,-0.13452821189501427,-0.7922778597209286,3.2588312696017345,3.259250230699805,2653858
0,0,0,0,0,0,0,0,0,0,0,0,1.4747670620402171,0.1734652368384882,-0.1772539826934317,-0.39339581649253563,3.2590110491527375,3.2589461396868393,-0.12781263921411504,-0.23086998830675937,-0.17464658911783565,0.048588472436484384,3.25940758698077,3.2593068789609525,2654853
0,0,0,0,0,0,0,0,0,0,0,0,0.7878368720813836,-0.06906878579482863,-0.14753331512609902,-0.47302871620997383,3.2589123080864315,3.258811600066614,0.7655949551576322,-0.12874890908585895,-0.14097155820984342,0.42783205840969785,3.259415061404116,3.2593859504921374,2655847
0,0,0,0,0,0,0,0,0,0,0,0,0.6634628609970642,0.2524360600037646,-0.1067072280296359,-0.5587033103350771,3.2584842990022063,3.2588776897046197,1.4650070387133405,0.029855207187558075,-0.12300894534694497,-0.0932627073839554,3.2587836693267427,3.2592199396157193,2656842
0,0,0,0,0,0,0,0,0,0,0,0,0.5622638895826207,0.31146158116597905,-0.45871204837704277,-0.03614985181687495,3.2590842198233867,3.2591609310103573,1.1869938954107635,-0.25700017893316496,-0.06380757854075175,-0.11634844736438361,3.259671945532792,3.2591632913545716,2657836
0,0,0,0,0,0,0,0,0,0,0,0,0.29880069479950605,-0.00976474401530552,0.6018834473947821,-0.2876032218460109,3.2587730477777774,3.258601529431525,0.6385655568320223,-0.1600293707882608,-0.14630868986948606,0.02725450125390306,3.259290356551451,3.2594536136929526,2658831
0,0,0,0,0,0,0,0,0,0,0,0,-0.5159256119639412,0.19608126832023481,-0.008279300722992506,0.1777590963553305,3.258620018794539,3.2589032601002765,0.275732264009984,-0.17339678685626828,-0.12088896285163914,0.068562885351525,3.258979184505842,3.2591994832991933,2659825
0,0,0,0,0,0,0,0,0,0,0,0,-0.23072049983984227,0.44677854141933215,-0.5206659699280226,-0.8551881140694754,3.2589016865374667,3.2591038893585074,0.6185258410603811,-0.17005926013699293,-0.12913639892773615,0.16578428337386647,3.259560222573307,3.259106643093424,2660819
0,0,0,0,0,0,0,0,0,0,0,0,0.7169718643393354,-0.633674136838214,-0.7319651641804175,-0.5703976357457203,3.258649129706517,3.2582726548043075,0.6609223438408784,-0.1794290398870754,-0.13191649102169167,0.3804217911269416,3.2594512533487383,3.2592758010954617,2661814
0,0,0,0,0,0,0,0,0,0,0,0,0.2572047420984199,-0.6843920331468621,-0.5109102738988726,-0.8171326776901099,3.2588898848163943,3.258712465609606,0.6469176348349612,-0.2302484309969462,-0.14133977190730238,-0.038808386183784745,3.2593509387196224,3.258804912424673,2662808
0,0,0,0,0,0,0,0,0,0,0,0,-0.24487391053127175,-0.14782560441799214,-0.7344832580665657,-1.026446822458127,3.2589815448500565,3.259197909736384,0.7068672307571447,-0.1924274554762191,-0.1517398419070055,0.5262045176273009,3.25935054532892,3.2595515679778537,2663803
0,0,0,0,0,0,0,0,0,0,0,0,-0.014095582258174687,-0.6576080271730456,-0.9502973974105593,-0.20204310441530995,3.2589528273287804,3.2586971233722117,0.8835413555552191,-0.2082614312483586,-0.14287320886530983,0.6721823659160573,3.2594162415762233,3.2592364620252203,2664797
0,0,0,0,0,0,0,0,0,0,0,0,0.4498462021167519,-0.6892244445353084,-0.8956821794131016,-0.5564181037447576,3.258909554351515,3.259164078135976,0.2727912751187414,0.022762372823044396,-0.15829451779061768,0.9472981866953595,3.2591754864663462,3.259046060925252,2665792
0,0,0,0,0,0,0,0,0,0,0,0,0.25504778087708724,-0.3948391669796904,-0.7739765374632522,-0.49679108819855305,3.25921521892729,3.2592478703555905,0.2119880213723208,0.4923245301633513,-0.1385289953385586,-0.012426425507834614,3.259220726397124,3.259337170045038,2666786
0,0,0,0,0,0,0,0,0,0,0,0,0.6331792513345779,-0.41950751775592776,-1.1517346801441526,-0.7384246395140456,3.2589642356591506,3.258439452462131,0.4864378316924371,0.13032483223972705,-0.13747077434906654,-0.5310802019930126,3.2592518042626146,3.2594162415762233,2667780
0,0,0,0,0,0,0,0,0,0,0,0,0.08914115299477017,0.018902816641666487,0.036188797496413884,-1.3204414630462484,3.258892638551311,3.258681387744115,-0.31396944689386447,-0.1463614042236095,-0.13551955646509606,-0.8395598816346981,3.2592868160351296,3.258961481924233,2668837
0,0,0,0,0,0,0,0,0,0,0,0,1.5291104470623071,-0.2085773239823966,-0.208019102575672,-0.20990305064952977,3.2587435434750964,3.2585055421001363,-0.9149032491330206,-0.1977720615592076,-0.16325045385962172,-0.10976190683387599,3.259366674347719,3.259077138790743,2669893
0,0,0,0,0,0,0,0,0,0,0,0,0.9042911415447166,0.19186844728808966,-0.06338507692635977,-0.47110778941008913,3.2589252899796115,3.258548421686699,0.15258641869859918,-0.23370908900607693,-0.12506873906478155,-0.13668832024196625,3.2592175792715046,3.25939775221321,2670950
0,0,0,0,0,0,0,0,0,0,0,0,0.6355840486984311,0.15970324989596005,-0.1911304463303621,-0.5732678143105285,3.2587557385868715,3.258708138311879,-0.03267188461683805,-0.2062098987352727,-0.14424810937024465,-0.647268539341514,3.2593847703200303,3.2592203330064216,2672006
0,0,0,0,0,0,0,0,0,0,0,0,0.8272144946115606,0.16719576921412577,-0.3978918788304184,-0.2520599784922574,3.2587447236472036,3.258863921030035,0.2401123094692599,-0.23746754377693458,-0.11848613244129806,-0.3905276048812395,3.259555108494175,3.2593021582725235,2673063
0,0,0,0,0,0,0,0,0,0,0,0,0.38339543144648447,0.19350967329855837,-0.24991639255480677,-0.38571919032564045,3.259114510907472,3.25870656474907,0.425895789372419,-0.15662457425887277,-0.13322490849791865,0.1338775436732225,3.2591302465355687,3.2590358327669895,2674119
0,0,0,0,0,0,0,0,0,0,0,0,0.49060895331012644,-0.2545324390569257,-0.14119303717530216,-0.029417363335771957,3.2587982247827316,3.2587537716333594,0.7984690425955108,-0.24690105282080801,-0.13728352037471775,0.1130608812643148,3.2595267843636018,3.2593690346919337,2675176
0,0,0,0,0,0,0,0,0,0,0,0,0.6376969501610934,-0.10563563175626178,-0.30716300096070775,-0.3358427567294546,3.2587057779676645,3.2589473198589465,1.1382213161255497,-0.1550671404680181,-0.12034687046371347,-0.08329379359409732,3.2594544004743575,3.259217185880802,2676232
0,0,0,0,0,0,0,0,0,0,0,0,0.882269916805019,-0.2832499603331042,-0.11184097669613084,-0.30719525899830563,3.2586758802742812,3.2587372492238575,2.093167018075826,-0.39868810161210316,-0.126179674408397,1.2843132477180061,3.259222693350636,3.2589197825097775,2677289
0,0,0,0,0,0,0,0,0,0,0,0,0.5742611258341224,-0.1309605516148271,-0.2741362779302928,-0.8402789998387098,3.2589205692911825,3.2587938974850053,1.1878530607048345,-0.15394479679403267,-0.14343221705343925,0.3559281058225758,3.2593293022309897,3.2591758798570485,2678345
0,0,0,0,0,0,0,0,0,0,0,0,0.5207953954691166,1.0551977819440106,-2.2730740276663335,0.7176587245057493,3.2583902786243293,3.258529932323686,1.0300750649064858,-0.11111045016174913,-0.13850421172430655,0.3065343626182511,3.2591727327314297,3.2595228504565776,2679402
0,0,0,0,0,0,0,0,0,0,0,0,0.36822667935212605,-0.6738735525457324,-0.7602117967858072,-0.3908769358249826,3.25888752447218,3.258610970808383,0.6887728320089378,-0.12939997069835313,-0.16013165237088828,0.06560576744148343,3.259244723229971,3.2591330002704857,2680458
0,0,0,0,0,0,0,0,0,0,0,0,-0.13991373061105378,-0.056595546793406816,-0.5890730725613919,-0.654726046887165,3.2591499160706894,3.2588532994810695,0.31532035056595215,-0.1947996014117719,-0.12653608638478356,-0.13897116648807126,3.259492952763194,3.259235675243816,2681515
0,0,0,0,0,0,0,0,0,0,0,0,-0.031563703008139495,0.010881580219457175,-0.3897640335278551,-0.9169630428508571,3.2587691138707533,3.2585063288815412,0.7254010469199474,-0.09866789563511558,-0.14575518915119043,0.10880439386420176,3.259245510011376,3.2595739912478914,2682571
0,0,0,0,0,0,0,0,0,0,0,0,0.059494049488788774,-0.3717628683761201,-0.33035692338429967,-0.5584983537791197,3.258821434834174,3.258697910153616,0.8909229386953041,-0.09447277718457904,-0.1557591147135633,0.4757521600427818,3.25929507723988,3.259221119787826,2683628
0,0,0,0,0,0,0,0,0,0,0,0,0.3493828713158215,-0.7035733704058373,-0.1562386579798052,-0.4349846881609783,3.259130639926271,3.2590873669490055,0.8248565107412946,-0.15501403272319228,-0.14970050450569444,0.3089458476240453,3.259433944157832,3.259113330735365,2684684
0,0,0,0,0,0,0,0,0,0,0,0,0.6120148315447368,-0.40426402142811074,-0.7737542717163887,-0.7076449641758161,3.2588906715977988,3.2586762736649835,0.19709857667667588,0.019678189716123305,-0.1366800590372156,-0.3962569470711883,3.2591263126285446,3.2590732048837188,2685741
0,0,0,0,0,0,0,0,0,0,0,0,0.13612891866313442,-0.4275594386529253,-0.8183053753740042,-0.4584335277597341,3.258581466505702,3.2585562895007474,1.147371190472983,0.059694678747019614,-0.1297567760654421,2.28256339818995,3.2594831179956336,3.2591463755543675,2686798
0,0,0,0,0,0,0,0,0,0,0,0,0.42876675471863207,-0.4588284920249572,-0.4386109636558251,-0.5622874930247656,3.2588473986205333,3.2591243456750325,0.5222159292955314,-0.18524650159436482,-0.14419578840682368,0.2585603664589365,3.2594791840886095,3.2592459034020784,2687854
0,0,0,0,0,0,0,0,0,0,0,0,0.19914302815711832,0.2809415436913423,-0.564802046394592,-0.34314605511975943,3.2588776897046197,3.258525998416662,-0.4678831658224065,-0.16769222828057148,-0.12071783789608931,-0.09313760914058794,3.258928043714528,3.2590732048837188,2688911
0,0,0,0,0,0,0,0,0,0,0,0,1.5816088296900783,-1.2302570379086777,-0.7414151956337923,1.1853963357682629,3.258570058175332,3.258553929156533,-0.18185193322323956,-0.12381696984970209,-0.12068203934216967,-0.6139385120795383,3.2596912216772105,3.2591821741082874,2689967
0,0,0,0,0,0,0,0,0,0,0,0,0.45665618856623036,-0.029264334352533145,-0.3557262963922377,-0.6337937276117477,3.2590763520093384,3.258992559789724,-0.2716917481054959,-0.1255730659452755,-0.12209313179172655,-0.45932180396578354,3.2593753289431726,3.2594599079441915,2691024
0,0,0,0,0,0,0,0,0,0,0,0,0.646505361378832,0.21383892462717588,-0.3031272057446487,-0.2486374793812608,3.259012622715547,3.258878476486024,0.0441105060709126,-0.1821233728079048,-0.11627134278671059,-0.3056161887188183,3.259056289083515,3.2588237951783885,2692080
0,0,0,0,0,0,0,0,0,0,0,0,0.9100747716515983,0.2156363267465027,-0.29847221356299086,-0.22804583645413357,3.2588949988955256,3.258795471047815,-0.056583745072334414,0.07797869181378982,-0.146447556787438,-0.5666411479283747,3.259582252452642,3.2590558956928124,2693137
0,0,0,0,0,0,0,0,0,0,0,0,0.7282185111306322,-0.022020044567590304,-0.2431119135751621,-0.0013394953417176416,3.2586876819953536,3.258837563852973,0.3784878824338772,-0.220956935996644,-0.1298633849457961,-0.0992528676096043,3.259230561164684,3.259138901131022,2694194
0,0,0,0,0,0,0,0,0,0,0,0,1.0348366659684975,-0.06662858326775828,-0.19126891985761163,-0.7908557523317041,3.258649916487922,3.2586676190695307,0.39628369763895244,-0.14567965813632702,-0.1384676263889821,0.12874379500672756,3.259187681578121,3.258584220240619,2695250
0,0,0,0,0,0,0,0,0,0,0,0,0.9336730997172712,0.06718955840939979,-0.2869576677033505,-0.3362424416831066,3.2589378784820884,3.2586672256788285,0.7468321856060248,-0.12868675335487761,-0.12024734261600287,0.20408873606785966,3.2591149042981744,3.259292716895666,2696307
0,0,0,0,0,0,0,0,0,0,0,0,0.48930919042935256,0.08778867575987288,-0.08205894017922165,-0.4947501772344323,3.2587793420290163,3.258619625403836,2.342655401546407,-0.09934806815958834,-0.13712065662391862,0.16766429754070014,3.2592706870163304,3.259263212592985,2697363
0,0,0,0,0,0,0,0,0,0,0,0,0.9910105813754297,-0.27270472916421046,-0.1274503263771923,-0.591271339806478,3.258767540307944,3.258710498656094,0.2634832577089378,-0.17193179988048074,-0.17938458673770266,0.235026161077757,3.2591487358985822,3.2590944479816493,2698420
0,0,0,0,0,0,0,0,0,0,0,0,0.396428858808143,0.09056680090031634,-0.32047337537686527,0.4168961902733076,3.2592809151745934,3.259010655762035,0.9869468554194993,-0.1526572290250336,-0.1537201707029546,0.33267399462151465,3.259349365156813,3.2593698214733386,2699476
0,0,0,0,0,0,0,0,0,0,0,0,1.0286852155548591,-1.2335217873480067,0.933631006912113,-0.8622624590709757,3.2586872886046514,3.2591546367591184,0.7929466239150313,-0.06256603748393506,-0.13980240104227076,0.48464790399645613,3.2593108128679766,3.2594752501815853,2700533
0,0,0,0,0,0,0,0,0,0,0,0,0.17741173236509944,0.5858480555830068,-0.6498822271683486,-0.6987681029758576,3.2587872098430646,3.2586723397579593,0.7678573450872117,-0.09176467558916515,-0.15052387124584568,0.45381551430410316,3.2595350455683523,3.259200663471301,2701589
0,0,0,0,0,0,0,0,0,0,0,0,0.7939847819787004,-0.7646087246666818,-0.882989428399733,-0.6674620708777989,3.2589764307709252,3.258941025607708,0.8582970807906485,-0.14545581882665382,-0.1390821026661518,0.4186227820662,3.2592482637462927,3.259163684745274,2702584
0,0,0,0,0,0,0,0,0,0,0,0,-0.04050547367399617,-0.18638104038012507,-0.7907456029350284,-1.075794538950269,3.2588969658490377,3.258658571083375,0.9436191968463894,-0.031167558570809193,-0.12745544045632365,0.12945661895950067,3.2588953922862283,3.2590263913901314,2703578
