0,0,0,0,0,0,0,0,0,0,0,0,-0.03707353318614163,-0.8257117421283414,-1.1797433113745823,-1.1026426676085792,3.2586998771071283,3.258583433459214,0.5874495491325317,-0.8091027866724475,0.22250532180134316,0.6679994425772956,3.2589929531804263,3.2590708445395045,72762307
0,0,0,0,0,0,0,0,0,0,0,0,0.01702516281904731,-1.1360497994482277,-1.303724718537893,-1.355586988399862,3.258811600066614,3.2587502311170375,0.860405261564882,-0.45090442310624396,-0.3070902236807613,0.2670863231523422,3.259231347946089,3.2593053053981427,72763545
0,0,0,0,0,0,0,0,0,0,0,0,-0.18226460007007123,-0.731526926937929,-1.544889741526811,-1.4928075662621936,3.258802945471161,3.258902866709574,0.27928536883418187,-0.8449040943269841,-0.06726351586145352,0.31092302929437504,3.2594760369629903,3.2593635272221,72764783
0,0,0,0,0,0,0,0,0,0,0,0,0.20457929427376914,-0.7439907245624929,-1.2652318316974438,-1.1546709483469662,3.259172339340727,3.258316714562978,0.3953297251855999,-0.4197565340705554,0.04593623232081322,0.30774089190255305,3.259173519512834,3.2591168712516865,72766021
0,0,0,0,0,0,0,0,0,0,0,0,0.5213056232101468,-0.354357296747839,-0.8974005100012432,-1.3710574711629713,3.258698303544319,3.258848972183343,0.32498674690565427,-0.5149928826085188,-0.034768263669999085,-0.03259359986705778,3.2593230079797513,3.25933913699855,72767259
0,0,0,0,0,0,0,0,0,0,0,0,0.09558843321662344,-0.22572719165410896,-0.6083106646908122,-1.5403649616676522,3.258793110703601,3.2588647078114397,0.08688977800485825,-0.7029443386726782,-0.444982712862815,-0.066168709536637,3.259233314899601,3.2591137241260677,72768497
0,0,0,0,0,0,0,0,0,0,0,0,0.5808551407879758,-0.680215404059339,-0.8918682565532037,-0.7300375497385918,3.25904409397174,3.2591880749688236,-0.2337791125511065,-0.8607309890664803,-0.5074055561310715,-0.03801098322999277,3.259385163710733,3.259292716895666,72769735
0,0,0,0,0,0,0,0,0,0,0,0,0.02356331629315809,0.2811181761167259,-1.6064947255247501,1.323450901919711,3.258791537140791,3.2587266276748927,0.06761324019589904,-0.5809031344536703,-0.4966081615219308,0.11454671794733022,3.259222693350636,3.258915061821349,72770973
0,0,0,0,0,0,0,0,0,0,0,0,-0.2585100124490276,-0.0003339887063489802,0.07693227254537016,-1.1680100402844,3.258927650323826,3.2586208055759434,0.43401616025163653,-0.21880469546374026,0.7802865243299633,0.3915059675581416,3.259077925572148,3.259323794761156,72772211
0,0,0,0,0,0,0,0,0,0,0,0,0.3205477262196214,0.10779692027532103,-0.1920218696620309,-0.9017317416348148,3.258715612735225,3.2586011360408227,1.1480135974900243,-1.4125511422814299,1.370465418155839,-0.6331253568083473,3.258889491425692,3.258832449773842,72773449
0,0,0,0,0,0,0,0,0,0,0,0,0.6084625135019437,0.2578133175150535,-0.35317515768708674,-0.7375430509499372,3.258797438001327,3.258933551184362,-1.4746266215594555,-0.516380371615931,0.07082409510899725,-0.6847810965515491,3.259186501406014,3.2590952347630537,72774687
0,0,0,0,0,0,0,0,0,0,0,0,0.46067152746576395,0.03550351089280974,-0.33332308928049675,-0.7465631063655742,3.2589835118035686,3.2587160061259275,-0.4837222556736774,-0.3456629688338004,-0.4730432716659631,-0.27344863098247424,3.2593678545198266,3.258712465609606,72775925
0,0,0,0,0,0,0,0,0,0,0,0,0.6135659710843528,-0.30808982945559377,-0.8347935598842573,-0.2413530637446718,3.2587793420290163,3.2586924026837827,-0.8555047935849183,-1.217310943282955,-1.0107521069946415,-0.578047117954149,3.259317107119215,3.259136147396105,72777163
0,0,0,0,0,0,0,0,0,0,0,0,0.39519518556537453,0.16850536686245998,0.053996807813263874,-0.3387109683407507,3.259029538515751,3.2586101840269786,-1.3632258490593252,-1.2533624474242266,-1.5442013077975876,-0.9668744882195578,3.259176666638454,3.2591758798570485,72778401
0,0,0,0,0,0,0,0,0,0,0,0,0.8521641197400235,-0.10861045224791195,0.0735022990110277,-0.5532528821531394,3.2587671469172412,3.258953614110185,-1.2254049569851109,-1.54463364417954,-1.29353983325241,-0.6932464710767829,3.2594854783398484,3.2593839835386254,72779639
0,0,0,0,0,0,0,0,0,0,0,0,0.8162148971813794,0.30249305993235825,-0.02031272891911613,-0.485138855593068,3.2589359115285763,3.2588871310814773,-0.7177181265018137,-0.9615688278161082,-0.7181819341399591,-0.29902099359285755,3.259346218031194,3.259053535348598,72780877
0,0,0,0,0,0,0,0,0,0,0,0,0.09356443805270648,0.0680263004334331,1.0152253526717845,-2.4952162498493493,3.258961875314936,3.2588403175878904,-0.0821104743612378,-0.9098839771609278,-0.5784094307910717,0.23720200505280553,3.25942056887395,3.2594189953111403,72781911
0,0,0,0,0,0,0,0,0,0,0,0,-1.049211949016088,1.2538648073512086,-0.49928479186115166,-0.8324528852048975,3.2584107349408544,3.2584925602069568,0.11992122172370216,-0.4577722379889772,-0.5347666662653286,0.19290739213316344,3.2589827250221637,3.258922142853992,72782945
0,0,0,0,0,0,0,0,0,0,0,0,-0.31418305804527497,0.16761394353079123,-0.2178019425632885,-1.4664653380471868,3.259020490529595,3.2591192315959012,0.16671858629209832,-1.331790784810875,-0.7734517542662327,0.3871054991609453,3.25942056887395,3.2593308757937995,72783979
0,0,0,0,0,0,0,0,0,0,0,0,0.4958929772249433,0.3037165050168639,-0.52224504020751,-1.3127054348832887,3.2587348888796432,3.2586141179340027,-0.43348586958478325,0.9585589955519431,-1.0051541572992988,0.19846403580475278,3.2592702936256277,3.259417815139033,72785013
0,0,0,0,0,0,0,0,0,0,0,0,0.14877957687134466,-0.22753167480607922,-1.1435553006595731,-1.7035304431355527,3.2589217494632896,3.2588064859874826,0.4781966898675787,-0.7194065593965719,0.5580015013219716,0.492539321486869,3.258971710082496,3.2591963361735745,72786047
0,0,0,0,0,0,0,0,0,0,0,0,0.46478560743160335,-0.44858892543183865,-0.8785791252349764,-1.3077868709310139,3.2591518830242014,3.2590322922506676,0.7789348338764707,-0.12209863926156035,0.2693373047515517,0.35031127337351714,3.259387130664245,3.259550781196449,72787081
0,0,0,0,0,0,0,0,0,0,0,0,0.07724108424676468,-0.6932389966534372,-1.1949907416094232,-1.163180776021573,3.258920962681885,3.258728594628405,0.6099412691523157,0.15509782494280636,0.5222466137703197,0.5640219526317063,3.2592400025415422,3.2591994832991933,72788115
0,0,0,0,0,0,0,0,0,0,0,0,-0.162753994793176,-0.9916518082203636,-1.0722811665870149,-0.7475040969257469,3.2590657304603727,3.2589457462961366,0.8506900847780805,0.3005099774014923,0.201845228891996,0.15025793913101426,3.259357626361564,3.259273047360545,72789148
0,0,0,0,0,0,0,0,0,0,0,0,0.06568680592618058,-0.5766297312533535,-1.3061680681905827,-0.23902773130270616,3.2587160061259275,3.2586943696372948,-0.1575348803442574,-0.7148400801229572,-0.5626486256895812,-0.7263994725226727,3.2591833542803945,3.2589213560725874,72790182
0,0,0,0,0,0,0,0,0,0,0,0,1.0379845783692094,-0.7263853104573857,-0.6531430427006534,-0.8189147375720426,3.2588033388618634,3.2588273356947104,-0.0771651598411989,-0.6438869528635683,-0.7326075711974587,-0.07145745413988282,3.2593041252260355,3.258979971287247,72791216
0,0,0,0,0,0,0,0,0,0,0,0,0.8649575787732098,0.38237222222950723,-0.8412671972831722,0.11704710925186983,3.2587045977955578,3.259069664367397,-0.3288970504876435,-0.9133332268396886,-1.2235505132139342,0.15380711004818798,3.2588737557975955,3.259285635863022,72792250
0,0,0,0,0,0,0,0,0,0,0,0,0.2516083659658868,0.6089153062004217,-0.27286641274290235,-0.6207968855854136,3.2588635276393325,3.258596415352394,-0.2664907296288883,-1.3912254323035993,-0.25307610667659125,-0.7462743575900027,3.2594555806464647,3.259311599649381,72793284
0,0,0,0,0,0,0,0,0,0,0,0,0.7287071023830297,0.6356662673552355,0.1328090945254677,-0.9885192380570457,3.2591392945217246,3.2591463755543675,-0.5797520732584087,-0.9042663579304645,-0.4036424641182976,-2.1258349687856395,3.2592093180667536,3.2591333936611884,72794318
0,0,0,0,0,0,0,0,0,0,0,0,0.9881404028106215,0.5162127871767029,-0.05215573932596914,-1.1583605597449016,3.258788783405874,3.258672733148662,-1.2075214156533975,-0.4571864792330836,-0.5144118445410543,-0.9748422235062388,3.259142835038046,3.2591868947967164,72795352
0,0,0,0,0,0,0,0,0,0,0,0,0.5003264904411423,0.27212447787815064,0.0570471593197774,-1.3657915432204655,3.258904833663086,3.25911254395396,-0.5894637095288884,-0.5654287177835366,-0.8501141607897473,-0.2451422029903177,3.2594764303536925,3.2590700577580995,72796386
0,0,0,0,0,0,0,0,0,0,0,0,0.07207861805899358,-0.010751367896958339,-0.35017948748820865,-1.0334074775466295,3.258762426228812,3.2588127802387215,-1.1393700169765968,-1.7527172628304077,-1.0437579803178287,-0.27030819300510794,3.25899846065026,3.2590149830597617,72797419
0,0,0,0,0,0,0,0,0,0,0,0,0.29195963048453694,-0.22651948052876955,-0.6743106096161138,-0.5144901292908346,3.25875062450774,3.258727414456297,-0.9143210308934486,-1.1017445566349693,-0.8011157752413481,0.2690524898830044,3.2594555806464647,3.259293110286368,72798255
0,0,0,0,0,0,0,0,0,0,0,0,0.4859126551047152,-0.3136614219738748,-0.472669157107968,-0.6954856509549201,3.2588234017876863,3.2586876819953536,0.4494831024984243,-0.2888455496842324,-0.23229799655652003,0.5206120754017919,3.259195942782872,3.2590417336275257,72799091
0,0,0,0,0,0,0,0,0,0,0,0,-0.02512586416314413,0.18335822622278047,-0.28375900790202707,-1.3874870404585649,3.2588879178628822,3.258906013835193,0.18629134729997482,-1.158403832722167,-0.2764600368094488,-0.12994914411892225,3.259026784780834,3.2592773746582715,72799927
0,0,0,0,0,0,0,0,0,0,0,0,0.36218891885148513,0.9733453718835559,-1.8051243788152194,0.350048488384305,3.2589693497382815,3.2589166353841583,-0.5637461857493146,-1.648135131375209,-1.3188014172078868,-0.4501054465896423,3.259377689287387,3.2593155335564052,72800762
0,0,0,0,0,0,0,0,0,0,0,0,1.5237103728902786,-0.444691603743029,-0.38738716690387326,0.4530507627786115,3.2589929531804263,3.258970136519687,-0.2464073474892792,-1.4495719611134483,-0.8618470384892271,0.17409702230656413,3.2594575475999767,3.2590488146601695,72801598
0,0,0,0,0,0,0,0,0,0,0,0,1.245542627041653,0.15290899907457817,0.7448880487546978,0.5287902747142642,3.2590747784465286,3.2585197041654235,0.029837504605949472,-1.603051376706526,-1.0603476596293042,-0.17761354179543754,3.259185714624609,3.2592344950717083,72802434
0,0,0,0,0,0,0,0,0,0,0,0,0.6457594926070561,0.7641756015033246,0.09720290865932807,-0.028640810089207897,3.2588627408579276,3.2587718676056703,0.30126056686169705,-0.700878250703603,-1.3327785888646348,2.912860669238647,3.2593981456039125,3.259441418581178,72803270
0,0,0,0,0,0,0,0,0,0,0,0,-0.08278592619728162,0.09172533651892381,0.12494560777492615,-0.2884124265208753,3.259038979892609,3.258555502719343,-0.12594560694046103,1.7698207103992354,-0.8015233280090484,-0.5324566760607572,3.2593182872913227,3.25905864942773,72804105
0,0,0,0,0,0,0,0,0,0,0,0,-0.46197679781637163,-0.13109705818856457,-0.34169090291153226,-0.9496707260216148,3.2587533782426568,3.258406014252426,-0.4880955801124072,-1.3108604324889699,-1.1863865001662373,-1.5045306091941129,3.25918099393618,3.2593033384446306,72804941
0,0,0,0,0,0,0,0,0,0,0,0,-0.027496436535887302,0.1659282643709498,-0.882070074328193,-1.8332297841584424,3.2588615606858204,3.2585358331842222,-1.1075942763798565,-1.3369217797424529,-1.3874622568443127,-0.5728736368267103,3.2590212773110006,3.2589878391012954,72805777
0,0,0,0,0,0,0,0,0,0,0,0,0.4756612867905243,-0.14203213954354996,-0.47069472917255506,-0.5257627398684906,3.258955581063697,3.2588682483277616,-0.12889052973872778,-0.8500457108075273,-0.37539268438728857,0.20396049069887287,3.259436697892749,3.2593068789609525,72806613
0,0,0,0,0,0,0,0,0,0,0,0,0.048064082630167315,-0.44564596958708397,-0.4199398541378801,-0.4598886799679613,3.2586522768321364,3.258674700102174,0.11188031576637218,-1.0240078001031638,-0.22204780841443636,-0.3179753444165402,3.259359593315076,3.25922505369485,72807448
0,0,0,0,0,0,0,0,0,0,0,0,0.36762636514024316,-0.07886342750351756,-0.4726620760753245,-0.4236935882203088,3.2590708445395045,3.258909554351515,-0.23747344463747078,-1.4385739372460766,-0.7247952252382308,-0.5544196789764975,3.259258885295258,3.2589418123891125,72808284
0,0,0,0,0,0,0,0,0,0,0,0,1.4035613779498788,-1.758392710494126,0.8610366536422555,-2.7081267724188294,3.2589469264682442,3.25863496764123,-0.21021815660216292,-1.0802929616323664,-0.43852284413848447,-0.36362046761756744,3.259583432624749,3.259290356551451,72809120
0,0,0,0,0,0,0,0,0,0,0,0,1.607668603380752,-1.2719812359787506,-0.8100437772326203,-1.9237792758678525,3.258787996624469,3.25881750092715,0.025054660446007303,-0.13383545086806428,-0.23080153832453945,0.2174766084523926,3.2591947626107647,3.2591459821636652,72809956
0,0,0,0,0,0,0,0,0,0,0,0,-0.1141061203606272,-0.2473554190820955,-0.4045527702036822,-1.5553315109409702,3.2591019224049953,3.2590936612002444,0.5823220947172755,-0.2114801539755051,0.2879588470409926,0.1584302375829503,3.2591868947967164,3.25935211889173,72810791
0,0,0,0,0,0,0,0,0,0,0,0,0.8450567299195206,-0.08436420969536419,-0.5858751995414733,-1.0176061532027905,3.2588064859874826,3.2583702156985064,-0.2597865652783591,-0.9679016313435591,-0.3765622349455636,0.15689562045283562,3.2592423628857565,3.2591967295642768,72812023
0,0,0,0,0,0,0,0,0,0,0,0,0.5627642825560906,-0.05251569181867741,-0.3994107603324366,-1.2817652561384745,3.258964629049853,3.258557469672855,-0.5221045997267484,-1.1153822321155347,-0.14257855922920218,-0.7736622182920239,3.258939452044898,3.258912701477134,72813255
0,0,0,0,0,0,0,0,0,0,0,0,1.3545374220058228,0.08189568303772009,-0.395254587561439,-0.9158965606566144,3.258891458379204,3.2586436222366837,-0.4300067222126391,-0.48905860055191525,-1.358079511890353,-0.7242908983577367,3.259411914278497,3.259526390972899,72814487
0,0,0,0,0,0,0,0,0,0,0,0,0.34480537710253917,0.03758376092717181,-0.274946269386562,-0.8185964844937901,3.2588206480527697,3.258800978517649,-0.9274233016280296,-1.479325280109081,-1.2976845976930376,-0.773577639291005,3.259263212592985,3.259269113453521,72815718
0,0,0,0,0,0,0,0,0,0,0,0,0.13485275922450535,0.052359515709819275,-0.3931228033450607,-1.0014598252129348,3.2588879178628822,3.2593001913190114,-1.1815112091912279,-1.3994677543005651,-1.2129808918214908,-0.6468350227874544,3.259355659408052,3.2593926381340785,72816950
0,0,0,0,0,0,0,0,0,0,0,0,0.7674584469149646,-0.42015857936842194,0.37404846835714195,-1.36069359310789,3.2590354393762873,3.258845038276319,-0.8447188073061475,-0.8667282303247726,-1.302854144913452,-0.8873883232341198,3.2593273352774776,3.259316713728513,72818182
0,0,0,0,0,0,0,0,0,0,0,0,0.6793696140491502,0.27171023746850936,-0.09223674443206124,-0.8360445423179319,3.259005541682904,3.2589327644029575,-0.6217201735639778,-1.3044170861741406,-1.1721402492690385,-0.5126675501665532,3.2595417332102934,3.258734495488941,72819413
0,0,0,0,0,0,0,0,0,0,0,0,0.5722973194476747,-0.7003731370417043,0.4837934593908142,0.38753429502657594,3.258972103473199,3.2587494443356326,-0.36632148818033794,-1.3139359610004377,-0.9507946432584099,-0.05693661653239924,3.2589937399618316,3.2592089246760514,72820645
0,0,0,0,0,0,0,0,0,0,0,0,0.03170886417733004,0.2906441319756665,-0.2514647783595059,-0.10523476663050253,3.25853543979352,3.258658571083375,0.37663304527199803,-1.1555013961197609,-0.3205433989218949,-0.0368555947370046,3.258880443439536,3.2591204117680084,72821877
0,0,0,0,0,0,0,0,0,0,0,0,0.02036937718026366,-0.13676935872666343,-0.2565340109508051,-0.6276147398489403,3.258714432563118,3.258523244681745,-0.1325510302246845,-1.8023202898884165,-1.515215100671661,-0.052616006447792824,3.259433157376427,3.259342677514872,72823108
0,0,0,0,0,0,0,0,0,0,0,0,0.45337491671740016,-0.41124788656805594,-0.7643612819148637,-0.8092691909395683,3.2589414189984103,3.258823008396984,-1.0632241324453513,-0.5875384554312773,-2.200297141110556,1.9649680691919407,3.2590507816136816,3.2590637635068607,72824340
0,0,0,0,0,0,0,0,0,0,0,0,-0.1777622434809498,0.002316284455810124,-0.7073444136791722,-0.9692053281313572,3.2587262342841905,3.25885172591826,0.24583378384516047,-0.6904207456613476,-0.24979365465565376,-0.0556734389869498,3.2594599079441915,3.259235675243816,72825572
0,0,0,0,0,0,0,0,0,0,0,0,0.308565832205514,-0.5911804665542204,-0.7344608347965281,-0.5801332688490473,3.2591739129035364,3.2587093184839864,0.15587083767304868,-0.6898778664920171,-0.35778372976585976,0.23515125932112446,3.259462268288406,3.2590657304603727,72826803
0,0,0,0,0,0,0,0,0,0,0,0,0.131285885725723,-0.5730789867733701,-1.4709735954968446,-1.2141138570444414,3.259162111182464,3.258990986226914,-0.10177450201207422,-0.4955715770210715,-0.7285509262741715,-0.38401620197489283,3.2591192315959012,3.2591963361735745,72828035
0,0,0,0,0,0,0,0,0,0,0,0,-0.1749089807163454,-0.6444479280052099,-0.9734755842060546,-1.2532511178554437,3.258655423957756,3.2588572333880936,-0.1707339251916319,-0.7307310975469468,-0.6478035506967962,-0.31728455034310227,3.2594555806464647,3.2591487358985822,72829267
0,0,0,0,0,0,0,0,0,0,0,0,-0.17075831541518155,-0.48312115468038974,-0.35691905700195514,-0.5939223997500419,3.2591884683595262,3.2588615606858204,0.20390423582842776,-0.7412059117801084,-0.47321951070064433,0.23181451938325395,3.2591546367591184,3.2591463755543675,72830498
0,0,0,0,0,0,0,0,0,0,0,0,0.4832678894123899,-0.03566362090869199,0.1254046947246426,-1.0489951907390584,3.258452827746013,3.2586530636135413,0.028410283137593643,-0.6207839036922339,-0.1894282447610193,0.5084810863114698,3.2591451953822608,3.2587852428895525,72831533
0,0,0,0,0,0,0,0,0,0,0,0,1.6393636988834974,-0.9616144611375881,1.214554061240442,-0.029775348874968154,3.2588887046442867,3.2588879178628822,0.17688222847965104,-0.7340367596193265,-0.18198293232714322,-0.06201843762617559,3.259494132935301,3.2593269418867754,72832568
0,0,0,0,0,0,0,0,0,0,0,0,0.16647665101011408,0.3534682337603847,0.3225426104715598,-0.7084824929812541,3.2587667535265386,3.258521277728233,0.27135421888282524,-0.9419260432632021,-0.7025954011196376,0.09688662253458767,3.2591908287037406,3.2590999554514832,72833602
0,0,0,0,0,0,0,0,0,0,0,0,0.1338920991292118,0.454963034983043,0.6980151531714384,-1.7148884194956326,3.258607036901359,3.258607430292061,-0.26378538176839134,-1.7904910314668454,0.6780104491723118,-1.789258538396184,3.259565336652438,3.2593289088402875,72834637
0,0,0,0,0,0,0,0,0,0,0,0,0.7939615719272579,0.6186186812661506,0.06050978428242019,-1.7736613838268975,3.2591774534198583,3.2590134094969523,-2.07691958867545,-0.5061970598932576,-1.2578561494178948,-0.511726166215678,3.258999247431665,3.2592498373091026,72835671
0,0,0,0,0,0,0,0,0,0,0,0,0.7368416353275341,0.24248288184200306,-0.1045412188221477,-0.23625472024139407,3.2586951564186997,3.2584555814809297,-1.3934559575862833,-1.0612638665752252,-0.054619938685886694,-0.8151405471730884,3.2591829608896923,3.2591137241260677,72836706
0,0,0,0,0,0,0,0,0,0,0,0,0.27680504045546533,-0.26630308226383714,-0.4353127760067911,-0.9514925183644912,3.259245510011376,3.2590197037481907,-0.7337373892947899,-0.4662785251472622,-0.7155796546434945,-0.9842867474897798,3.259620411350776,3.259385557101435,72837740
0,0,0,0,0,0,0,0,0,0,0,0,0.48821359732313124,-0.19737709729398456,-0.48934695593678423,-1.1513546647256212,3.258676667055686,3.2584878395185277,-0.7197228455213124,-0.47848543864315013,-0.7007496119439138,-0.6164152999419332,3.259416634966926,3.259161717791762,72838775
0,0,0,0,0,0,0,0,0,0,0,0,0.34217123295917906,-0.29950565093823084,-0.5511683048210507,-1.593950676196894,3.258658571083375,3.2584567616530373,-0.309587861250384,-0.4479386506007493,-0.7465650733190863,-0.44955469960626354,3.2591904353130383,3.259315926947108,72839810
0,0,0,0,0,0,0,0,0,0,0,0,0.23872993454097918,-0.18795893048750523,-0.6818290927206389,-0.8816125609412861,3.2587132523910105,3.2587758015126944,-0.556233996896028,-1.2602566194840217,-1.387640462832506,-0.43221639778809523,3.2592860292537242,3.2593733619896605,72840844
0,0,0,0,0,0,0,0,0,0,0,0,0.5535664145429628,1.4050861603124332,-1.6709832633713797,-0.47225373652621944,3.2588674615463566,3.2587769816848016,-0.49397952484840446,-1.4195849680405814,-1.0555927462092334,-0.09372218772437425,3.2591900419223356,3.258811600066614,72841879
0,0,0,0,0,0,0,0,0,0,0,0,2.0601902556646174,-0.25824762085051783,-0.2574714609946562,-0.5515538277094159,3.2590122293248447,3.258755345196169,-0.20219928052416805,-0.9323933997623205,-0.9964248176127454,-0.15644164758225054,3.2594555806464647,3.259315926947108,72842913
0,0,0,0,0,0,0,0,0,0,0,0,0.9439189605616283,0.06140238778619621,-0.08146885412560154,-1.0327678242645055,3.258850545746153,3.2588883112535845,0.860857267481955,-0.7222271707328761,-0.3260036618713929,0.6250038057570225,3.2593123864307865,3.2591754864663462,72843948
0,0,0,0,0,0,0,0,0,0,0,0,0.2636091427337101,0.06176981470225032,-0.6095057856447441,-1.5534294668948014,3.258822615006282,3.259002001166582,1.0479365763588637,0.45562039084677586,-0.63352189463638,1.3884351120513811,3.259291536723558,3.2593918513526736,72844982
0,0,0,0,0,0,0,0,0,0,0,0,-0.22858792884205922,-0.46194571995088096,-0.8981589672754964,-1.9128984824298003,3.25905707586492,3.2587817023732306,0.4773508998573899,-0.4182856462342317,-0.06583826134660975,0.0811096884142981,3.2594040464644487,3.25946620219543,72846017
0,0,0,0,0,0,0,0,0,0,0,0,-0.26643880205616977,-0.34022158863801816,-0.9260350258392126,-1.7865905626524166,3.259051568395086,3.258870608671976,1.0509578169533988,-0.2835823754766435,0.23650885063515312,0.9423363497658193,3.2594913792003846,3.259060616381242,72847051
0,0,0,0,0,0,0,0,0,0,0,0,0.33628492787896724,-0.2785690043650871,-0.4685664854724986,-1.3463867600425194,3.2585865805848337,3.2585216711189355,0.8874748691886507,-0.4452789360617323,-0.132871250256449,0.41214678432307056,3.2592478703555905,3.259027571562239,72847893
0,0,0,0,0,0,0,0,0,0,0,0,0.6787523840370636,-0.5681643567281195,-0.8317164578099796,-0.3423203280353937,3.258811993457316,3.2584740708439432,0.10323555508083762,-0.8406314779080721,-0.7515383185789964,0.002728951302641785,3.2589052270537886,3.2591058563120194,72848734
0,0,0,0,0,0,0,0,0,0,0,0,0.5449543052857286,-0.8552892154799956,-0.5498244821816065,-0.42500397265004786,3.2585712383474394,3.2588186810992577,-0.3788033817772128,-1.4325098195683739,-1.1332874099358807,-0.8075941333286921,3.2589197825097775,3.258996100306046,72849575
0,0,0,0,0,0,0,0,0,0,0,0,-0.4179917833795289,-0.16405454445535472,-0.6471080359349294,-0.6036784891698943,3.2589197825097775,3.2583363840980986,-0.5356616301133191,-1.4869137867586357,-1.360192806743718,-0.5308890141116397,3.259178633591966,3.2593316625752045,72850417
0,0,0,0,0,0,0,0,0,0,0,0,0.8264418752720207,-0.716152038115506,-0.1968511339248578,-0.5780593130659237,3.258968562956877,3.258784062717445,-0.8439229779151651,-1.299886012063743,-0.9310098446619325,-0.5514570535966222,3.259290356551451,3.259145588772963,72851258
0,0,0,0,0,0,0,0,0,0,0,0,0.9387828515509189,-0.31625111296786224,-0.775832948187941,-0.5148697513186635,3.258581073115,3.2588033388618634,-0.720703568542429,-0.3771865459902937,-0.941226594594311,-0.6151595968198296,3.2593175005099173,3.2596601438117196,72852099
0,0,0,0,0,0,0,0,0,0,0,0,0.7022067311056531,-0.10587166617770984,-0.1508669079383502,-0.2734635798291659,3.258970136519687,3.2589162419934556,-0.5589578341195385,-0.04775684449158245,-1.0961454267675192,-1.4910266865523678,3.259530718270626,3.2592077445039442,72852941
0,0,0,0,0,0,0,0,0,0,0,0,0.7107905162323136,0.0335861246092468,0.0651529747430056,-0.625342121761098,3.25871639951663,3.2586758802742812,0.36196665310462156,-1.2658289987837075,0.460187263511093,0.0386223123815432,3.2593698214733386,3.2592392157601373,72853782
0,0,0,0,0,0,0,0,0,0,0,0,0.5303752458542879,0.09281817589022825,-0.05649051147586243,-0.6464227493313252,3.2589418123891125,3.258808059550292,0.156203252816588,-0.06077532300654924,1.2195469760354727,0.6959777827236393,3.2590853999954934,3.2592222999599336,72854623
0,0,0,0,0,0,0,0,0,0,0,0,0.6893043028478982,0.30087425719192706,-0.09370723887768255,-0.6878865227564004,3.258795471047815,3.258518523993316,-0.13510256232053786,-0.2043601756525249,0.1988983391402172,-0.3183443448954039,3.2593957852596978,3.2590822528698746,72855465
0,0,0,0,0,0,0,0,0,0,0,0,0.46138710515345394,0.13637400107073797,0.10715254630476788,-0.5434507660211045,3.258583040068512,3.2588473986205333,-0.8418541362111731,-1.2223195937060825,-0.8517758431167415,-0.42564401932287443,3.2589182089469677,3.2588828037837505,72856306
0,0,0,0,0,0,0,0,0,0,0,0,0.8341621678068838,0.04547124451056057,-0.020256867439373424,-0.18083659182031056,3.2591211985494133,3.259147555726475,-1.2130332127849117,-1.644908147443312,-1.6947196715735997,-0.6052312022723201,3.259097988497971,3.2591278861913544,72857147
0,0,0,0,0,0,0,0,0,0,0,0,0.8894288408075381,-0.393605493736922,0.2814576722929087,-0.27502888143406884,3.2588234017876863,3.258682961306925,-1.0331132213012242,-1.5962579126665486,-0.9149575370499535,-0.15567453571254442,3.2597144317286526,3.2596522759976714,72857989
0,0,0,0,0,0,0,0,0,0,0,0,1.248966306324757,-0.17285587464044985,0.7949025624874307,-0.22201397681402885,3.2591278861913544,3.258778555247611,0.11830320576467583,-0.6350549382036851,-0.3283553514904203,0.7023758891076909,3.2587761949033967,3.258883197174453,72858830
0,0,0,0,0,0,0,0,0,0,0,0,1.099376737997143,-1.1986799596166562,0.33515707673514805,-1.5626835897783744,3.258946533077542,3.258723087158571,-0.4269201787615035,-1.6398546504801095,-1.0739518969001647,-0.6710403527069512,3.259378476068792,3.2592758010954617,72859671
0,0,0,0,0,0,0,0,0,0,0,0,0.7783482883391724,0.09515688361607594,-0.5614015771629306,-0.6575525590840052,3.2588127802387215,3.258529538932984,-0.37843870859607553,-1.00611442400389,-0.5480207858110411,-0.7452692443453365,3.2592832755188077,3.259370608254743,72860512
0,0,0,0,0,0,0,0,0,0,0,0,0.43317115702285247,-0.3673989853142482,-0.49931941024296406,-0.875821063020356,3.2588068793781853,3.258617658450324,0.5048351412815023,-0.2985422371080204,-2.3458056742913334,1.1145604389381931,3.2591058563120194,3.25914676894507,72861739
0,0,0,0,0,0,0,0,0,0,0,0,-0.17538891737328974,0.233963219399836,-0.8040925626865104,-1.5690061651475626,3.258859987123011,3.2583922455778414,-1.4669794996952414,0.14526699128949538,-1.640497450887853,0.03209832097271931,3.2591798137640726,3.259475643572288,72862966
0,0,0,0,0,0,0,0,0,0,0,0,0.06676390966938849,-0.6725033727292267,-1.0651513534964745,-1.692233442334347,3.258841497759997,3.258942205779815,-0.3063970692631089,-1.3054438359074396,-1.1572350689452968,-0.3919103732002226,3.259388310836352,3.2589292238866356,72864193
0,0,0,0,0,0,0,0,0,0,0,0,-0.5968980070230969,-0.6029113773001882,-1.2481791315292277,-1.731873849853736,3.2589284371052307,3.2586066435106567,-0.562307949341291,-1.0961139555113262,-1.3846384983823892,-0.7053511029900434,3.2591546367591184,3.2594579409906794,72865420
0,0,0,0,0,0,0,0,0,0,0,0,-1.1090616236998585,-0.49478282866273265,-0.7918931236139682,-1.094176112911238,3.2590527485671936,3.2586711595858526,-0.220130028740171,-0.9159661908109414,-0.7924462309415615,-0.16755296797191715,3.259333236138014,3.259334022919419,72866647
0,0,0,0,0,0,0,0,0,0,0,0,0.12172845861058933,-0.44992920755496113,-0.6169389029668454,-0.9679150066274412,3.2590118359341425,3.258741969912287,-0.09998890161381979,-0.5780722949591034,-0.6522618475272474,-0.21433420352151436,3.2593194674634294,3.2592997979283087,72867874
0,0,0,0,0,0,0,0,0,0,0,0,0.23426416328718225,-0.45746027916196336,-0.7992487429676941,0.06813999034643058,3.258922929635397,3.2589119146957293,-0.09046097880136714,-0.5209303284800444,-0.48018173935195674,-0.2993530153456944,3.2593064855702503,3.2595979880807384,72869101
0,0,0,0,0,0,0,0,0,0,0,0,0.010175050517922701,1.0865518077077636,-0.519764318438091,-0.44807751751870123,3.259018916966786,3.258572025128844,-0.03898147809284664,-0.800089812289454,-0.8083356748027414,-0.41172467609938096,3.2593450378590862,3.2589186023376704,72870327
0,0,0,0,0,0,0,0,0,0,0,0,0.1627122953787202,0.13360138340012828,-0.29631800607657505,-0.7712184752486317,3.258498461067493,3.258441419415643,-0.5695101463210757,-0.6135797397589373,-1.433771423551014,0.2267873795971131,3.2590853999954934,3.2592014502527054,72871554
0,0,0,0,0,0,0,0,0,0,0,0,1.2347074669250806,0.05652985054610377,0.26467287119303595,-0.5225271013411404,3.2590956281537564,3.258758492321788,-0.31641673045357827,-0.43536076967248555,0.18573942014448883,0.4269902023065331,3.2590621899440513,3.2590079020271183,72872781
0,0,0,0,0,0,0,0,0,0,0,0,0.8636747316926398,0.4910759080738912,0.057266671331724084,-0.8449103885782228,3.2585979889152035,3.258725840893488,0.5201478743729441,-1.1786882375107095,-0.3692227446106368,0.009632564739294618,3.2593611668778855,3.259151096242797,72874008
0,0,0,0,0,0,0,0,0,0,0,0,0.6337618629648522,0.2403149056810028,-0.3560823149779218,-1.3743556588120054,3.2590617965533486,3.258641261892469,-0.6059841520767393,-0.9331278602037263,-0.34378688857399087,-0.6646080213317896,3.258997280478153,3.2592592786859607,72875235
0,0,0,0,0,0,0,0,0,0,0,0,0.3622219636704878,0.26122480168638246,-0.1658185083649764,-0.8933851711017097,3.2589201759004798,3.2592462967927807,-1.3605551195806407,-0.8419658591706584,-1.141812973238584,-0.23743764608355117,3.2592907499421537,3.2593127798214887,72876462
0,0,0,0,0,0,0,0,0,0,0,0,0.43551143831150985,0.1356973690625869,-0.3323998013019325,-0.7480332074204931,3.2588721822347857,3.258481545267289,-1.175914833058695,-1.1329140821592907,-1.0168661852915506,-0.9730184642098504,3.259385557101435,3.2591782402012632,72877689
0,0,0,0,0,0,0,0,0,0,0,0,0.5204657340604942,0.02513530554000205,-0.5075975307938494,-0.9420039346222799,3.2591137241260677,3.2588352035087587,-1.2829171041151408,-1.3373722120967162,-0.7759989590643596,-0.6283425126484051,3.259143621819451,3.25900003421307,72878916
0,0,0,0,0,0,0,0,0,0,0,0,0.4970066663034756,-0.08466043289428149,-0.24227399137902156,-1.0942894094335327,3.259107036484126,3.2588206480527697,-0.5076703080737959,-0.6086985479233917,-0.9422120383038567,0.5036128763691039,3.259469349321049,3.259631819681146,72880142
0,0,0,0,0,0,0,0,0,0,0,0,0.8784107540143434,-0.11047237044243459,-0.05471592601727557,-2.7198840403418587,3.2586703728044473,3.258266360553069,-0.22585189650677398,-0.9606266570838281,-1.1421473553356354,-0.7461496527373376,3.259259672076663,3.259180600545478,72881176
0,0,0,0,0,0,0,0,0,0,0,0,0.46358891291486176,0.918525590720843,-1.5210691477142748,-0.24304031646732288,3.258622379138753,3.259009475589928,-0.7791637872652754,-1.4365869208081865,-1.5834196070932873,-0.40731673327883877,3.259119624986604,3.259010655762035,72882210
0,0,0,0,0,0,0,0,0,0,0,0,1.5831084350476783,-0.18313792742942897,-0.2410509396852183,-1.0097489607034873,3.2586731265393647,3.2584524343553105,-0.13004906535733526,-1.2296822940924519,-0.7345336120764746,0.34088130484596546,3.2594559740371674,3.2593580197522662,72883244
0,0,0,0,0,0,0,0,0,0,0,0,0.19667646845298628,0.0071577438304118906,-0.39455671245535756,-1.8358741564600654,3.258865101202142,3.259012622715547,0.5302273309501804,-0.9997068762429805,-0.6595997642993645,0.15851048928624265,3.259112150563258,3.258957154626507,72884278
0,0,0,0,0,0,0,0,0,0,0,0,-0.09423752954453582,-0.18313753403872654,-0.5649051147586244,-0.8682978592274021,3.258964629049853,3.2588942121141207,-0.7984021661761005,-0.47604287577186527,-1.7355980796334838,0.17281810913301815,3.2594898056375747,3.2594544004743575,72885312
0,0,0,0,0,0,0,0,0,0,0,0,0.21927086344610014,-0.526045587783526,-0.6320950665587266,-0.6341741364209814,3.2591967295642768,3.2585409472633535,-0.2380639240817933,-1.4057246334224502,-0.8440488629399374,-0.31226606515241445,3.2592199396157193,3.258979184505842,72886345
0,0,0,0,0,0,0,0,0,0,0,0,-0.01907197464370425,-0.43821521260919716,-0.22229289082203993,-0.9385204599524093,3.258811993457316,3.25894456612403,0.3915492405354071,-0.715854241353779,-0.11025010469557102,1.021830775956008,3.2592427562764588,3.2592474769648883,72887379
0,0,0,0,0,0,0,0,0,0,0,0,-0.7301103270185383,-0.33886242376117987,-0.400033497814357,-1.3932183496020256,3.2585496018588067,3.2588037322525656,1.2393152522224489,-0.23138965742464748,0.17640386538551633,0.8576074668893179,3.259445352488202,3.2593847703200303,72888413
0,0,0,0,0,0,0,0,0,0,0,0,-0.15009389520810784,0.2606783820007303,0.046078246364384456,-0.1207386876033172,3.2588005851269464,3.2586617182089945,0.5014087082634816,-0.7849332553068703,-0.462745089858185,0.1304731405345369,3.259243543057864,3.258900112974657,72889447
0,0,0,0,0,0,0,0,0,0,0,0,0.21977204320097482,0.019939007751823397,-0.495346557539291,0.10619267299087917,3.258492953597659,3.2590326856413703,-0.29479833779315207,-1.2748046010499716,-1.1214428092769158,-0.2539982144830482,3.2590212773110006,3.259256918341746,72890481
0,0,0,0,0,0,0,0,0,0,0,0,1.1898314225472715,0.057456679040989764,-1.0231734184233447,0.7788750384897039,3.2588045190339705,3.2587789486383136,0.1614597393822359,-0.9930939785354111,-0.8215414072920569,-0.11587834547499959,3.2592222999599336,3.258861954076523,72891514
0,0,0,0,0,0,0,0,0,0,0,0,-1.5446143680351216,2.2526645246344237,-1.1978778359744353,0.16389286087666283,3.2588257621319006,3.2590244244366193,-0.3741570441910081,-0.6876705512607755,-0.7607763124437704,-0.23066031106237303,3.2592392157601373,3.2593509387196224,72892548
0,0,0,0,0,0,0,0,0,0,0,0,1.4652670699676358,-0.11491453825408675,-0.12972923871627315,-0.6466017421009232,3.258835596899461,3.258605069947847,-0.531550697273099,-1.070057328946272,-0.6441749148577349,-0.36767042489891344,3.259106643093424,3.2590909074653274,72893582
0,0,0,0,0,0,0,0,0,0,0,0,0.8390740441172175,0.4000327110329522,-0.15128036156658667,-0.8606275273117455,3.259287602816534,3.258815533973638,-0.9626809433318309,-0.42564952679270823,0.7112704528892579,-1.5908716071691045,3.2594001125574246,3.259321041026239,72894616
0,0,0,0,0,0,0,0,0,0,0,0,0.7734525410476375,0.2700839603047323,-0.028557017869593842,-1.303929281703148,3.2587411831308817,3.2587462972100134,-1.0833020071151265,1.0103831065157778,-0.7704529369417353,-0.23834401826191165,3.2591424416473433,3.2593867372735423,72895650
0,0,0,0,0,0,0,0,0,0,0,0,-0.052383512542666495,0.052051884180532,-0.10028355124992742,-1.7373596831988911,3.259010655762035,3.2589567612358046,-0.3721605863762601,-1.2585933635942177,-1.0052851564032026,-0.4608461929376355,3.259427256515891,3.2591546367591184,72896683
0,0,0,0,0,0,0,0,0,0,0,0,-0.2810158945340984,0.2221241262107046,-0.3415925552359289,-1.5458759720177617,3.2588403175878904,3.2585857938034284,-1.383029137018816,-1.363195164584537,-0.9251219660189111,-0.9273548516458096,3.2588198612713644,3.2589559744543997,72897530
0,0,0,0,0,0,0,0,0,0,0,0,0.11371705695594035,-0.22282357487959562,-0.22627990559099978,-0.9799598431539348,3.2586082170734665,3.2582242677479107,-1.2022838118414656,-1.513986934898726,-1.7618124558702057,-0.9584401915598143,3.2592309545553864,3.259195549392169,72898377
0,0,0,0,0,0,0,0,0,0,0,0,0.3034316901483166,0.15036494140207068,-0.543805211043979,-0.9484079418668677,3.259092481028137,3.2590138028876545,-1.010833145479339,-1.2242987423299243,-1.0716253842860917,-0.08304871118649378,3.259177060029156,3.2593753289431726,72899223
0,0,0,0,0,0,0,0,0,0,0,0,0.17104549062794333,0.15604628992632508,-0.4906301964080568,-0.06724109259141595,3.258553535765831,3.2583800504660667,0.028615239693551026,-1.114704026544574,-0.765641375260517,0.06167461415226628,3.258963055487043,3.259051175004384,72900070
0,0,0,0,0,0,0,0,0,0,0,0,1.9814645149069445,-1.2481401858496888,0.5822933771959993,-1.0788012240888147,3.2589138816492413,3.2587872098430646,-0.15623315050997144,-1.0834050754791589,-0.9726278272423537,-0.5134055511242808,3.259702236616878,3.2592978309747966,72900916
0,0,0,0,0,0,0,0,0,0,0,0,1.5672170242329864,-0.3232436327032605,-0.4188808463669832,-1.0912056197173141,3.259246690183483,3.2588721822347857,-0.6525218787815426,-1.551350790423249,-1.8027172211071516,-1.0343075554737515,3.2593631338313975,3.2591302465355687,72901763
0,0,0,0,0,0,0,0,0,0,0,0,0.3753659338195245,-0.1463326867023333,-0.9186082027683499,-0.890188084863196,3.2586530636135413,3.2588922451606086,-0.7784804676151832,-1.976360663933833,-0.793275498542249,-0.11565332599321913,3.2590433071903355,3.2592679332814134,72902609
0,0,0,0,0,0,0,0,0,0,0,0,0.37842848043781285,-0.3652455646092373,-0.7991964220042731,-0.9377258107335341,3.258837563852973,3.258965022440555,1.0015853168470046,-0.3694225870874628,-1.0885254488617715,1.0992390512512984,3.2592919301142604,3.2593399237799554,72903456
0,0,0,0,0,0,0,0,0,0,0,0,0.27269882830367426,-0.26147657173592703,-0.16668593486379799,-1.6941893809067463,3.2586743067114714,3.2586711595858526,0.4814158059854276,-0.3034847978931424,-0.42501577437112026,1.0714003648043113,3.258966989394067,3.258715612735225,72904303
0,0,0,0,0,0,0,0,0,0,0,0,0.2863117201699877,-0.41311137832538825,-1.100916469206389,-2.798232519415917,3.2587474773821206,3.2585724185195466,0.7247067123301878,-0.3163376589223932,-0.3247491389213966,1.074983760712595,3.2591251324564374,3.2591739129035364,72905149
0,0,0,0,0,0,0,0,0,0,0,0,0.04100271952184671,-0.36667947371953413,-0.9189532064143665,-1.3326487699328384,3.259024031045917,3.2589803646779494,0.5386738227216986,-0.26906075108775507,-0.3756397337484042,0.08690197311663307,3.2591861080153115,3.25904566753455,72905996
0,0,0,0,0,0,0,0,0,0,0,0,0.3510858596665692,-0.3881220207359815,-0.8181185147903578,-0.6984738467304523,3.258959908361424,3.2584717104997285,0.5388803528404656,-0.6040675525745812,-0.5684664807875729,0.20378621861770374,3.259020097138893,3.258993346571129,72906842
0,0,0,0,0,0,0,0,0,0,0,0,-0.16320954122657075,-0.0977646705823744,-0.9643886523710075,-0.21342822473385628,3.259178633591966,3.2589378784820884,0.29371454640800315,-0.776900610554291,-0.560443670802554,-0.24835738520114245,3.2595444869452104,3.2593949984782933,72907689
0,0,0,0,0,0,0,0,0,0,0,0,-0.05309200919771304,-0.5886859761102171,-0.08847474914488185,-0.6325277963313813,3.2589268635424213,3.2586416552831716,-0.16757499785125227,-0.901224661019404,-0.4901152479785976,-0.06961559887118327,3.259461481507001,3.2589662026126627,72908535
0,0,0,0,0,0,0,0,0,0,0,0,-0.38284861837012985,0.513152600902629,-1.2880394444512657,-0.18771738859622342,3.259144801991558,3.258906013835193,-0.08752667755206554,-0.405210126067415,-0.47746931045881635,0.02461170251508981,3.2592132519737778,3.259331269184502,72909382
0,0,0,0,0,0,0,0,0,0,0,0,0.28135145680325707,0.002151453751498908,0.025005093217503216,-0.6919089426885774,3.2586377213761475,3.258823008396984,-0.27414768626066277,-0.33807288862143614,-0.9849055510646761,0.016603054595357727,3.2592683266721156,3.2592777680489737,72910228
0,0,0,0,0,0,0,0,0,0,0,0,1.3003270030411485,-0.160035271648797,-0.3314340271275076,-0.19430314234532622,3.258811993457316,3.2585582564542594,-0.09081857094986091,-0.08159001846194487,-1.0274118098511469,0.546433454326803,3.259361560268588,3.25922662725766,72911450
0,0,0,0,0,0,0,0,0,0,0,0,0.43478405890274746,0.027090850721699086,-0.17728624073102958,-1.01132724420157,3.2586101840269786,3.2589311908401477,-0.14768162342090885,0.2107063544638579,-2.2990559099979295,0.2854836327414075,3.2590433071903355,3.2593088459144646,72912671
0,0,0,0,0,0,0,0,0,0,0,0,0.6693999134778873,0.2257732183662913,-0.07616634084777127,-0.44118373884960876,3.2586550305670534,3.2587455104286085,-0.9388339923422326,-0.569881507144154,-0.029801706052029853,-1.2313947238200573,3.2591349672239978,3.259024031045917,72913893
0,0,0,0,0,0,0,0,0,0,0,0,-0.010809589720915521,0.29121454849416595,0.21184286020313026,-0.5273783954833025,3.2589217494632896,3.258741969912287,-0.5546014254810124,-0.5285691891395079,-0.8265032442215972,-0.41825102785241935,3.259408373762175,3.2592734407512474,72915114
0,0,0,0,0,0,0,0,0,0,0,0,0.548870509728254,0.1367772265407117,0.022677400431323103,-0.2855005485416112,3.2587462972100134,3.2587663601358363,-0.688344822924712,-1.309344698112571,-0.5665955146068947,-0.051629382566140004,3.2589547942822925,3.259151096242797,72916336
0,0,0,0,0,0,0,0,0,0,0,0,0.5528693262182863,0.5392855452639514,-0.050002318620958164,-0.26767286868964063,3.2593033384446306,3.258759279103193,-0.9612521483006654,-2.228079179296395,-1.5998566508122265,-0.3710720743026822,3.2593887042270544,3.2593234013704535,72917557
0,0,0,0,0,0,0,0,0,0,0,0,0.44928680053792003,0.10509668649395543,0.08797002887368546,-0.6359329862514718,3.2586853216511393,3.2588949988955256,-1.0712575639793351,-1.3945248001247406,-0.6986398576068708,-0.6019908430565408,3.2593257617146683,3.2589339445750642,72918779
0,0,0,0,0,0,0,0,0,0,0,0,-0.2419226934817664,0.5925042262678416,0.36750166028757814,-1.791371833249549,3.2586892555581635,3.25864794953441,-0.19525121393814251,-1.425529101554048,-0.9097203266287239,-0.33145487683473546,3.259348184984706,3.2591038893585074,72920000
0,0,0,0,0,0,0,0,0,0,0,0,-0.07526586952994697,1.132445553832716,0.06800427055409795,-0.8913202633047417,3.2591318200983785,3.25902285087381,-0.38302839792113275,-1.1694097244035868,-0.8117030992154001,0.05961993451356107,3.259128672972759,3.259009475589928,72921221
0,0,0,0,0,0,0,0,0,0,0,0,0.47271203669453105,0.3920240631132201,-0.18692942701928938,-1.2331665555437272,3.258590121101155,3.258680994353413,0.6443527274552259,-0.701239776759121,-0.6903963554377979,0.42038477902230964,3.258928043714528,3.2588033388618634,72922443
0,0,0,0,0,0,0,0,0,0,0,0,0.8375323459544594,-0.12399438905649054,-0.5515042604809118,-1.4011498929440847,3.2588300894296274,3.258699090325724,1.1042673712095465,-0.508134902493346,0.4319827237108616,0.44189970992800115,3.259090120683923,3.259554715103473,72923664
0,0,0,0,0,0,0,0,0,0,0,0,0.3742990582345793,-0.4871825202921057,-1.037137214796211,-1.1771732899157155,3.25918256749899,3.2586912225116755,1.3316645063954002,-1.589559255785853,-0.9722922649731951,0.5826733926145305,3.259341103952062,3.2591719459500244,72924886
0,0,0,0,0,0,0,0,0,0,0,0,-0.3345040481691418,-0.4306467688854657,-0.7713427867105945,-1.2465064342625658,3.2585948417895843,3.258848972183343,0.37168891092406636,-0.2729033914689292,-0.42626282289777073,0.09290826236108092,3.259195156001467,3.2591337870518906,72926107
0,0,0,0,0,0,0,0,0,0,0,0,0.23080350527805152,-0.6398999380946085,-1.0380313918627968,-1.3065410025764708,3.2590004276037723,3.25870656474907,-0.03480602917743077,-0.7929997316598572,-1.0311919011106372,-0.1814892269956144,3.25935211889173,3.259357626361564,72927329
0,0,0,0,0,0,0,0,0,0,0,0,0.481874892935144,-0.9904842246156006,-0.6293665086467872,-0.8160602946353309,3.2584217498805224,3.2585035751466243,-0.5632847384553836,-0.9830062607534241,-0.9237883715377296,-0.8703604066801556,3.2592974375840944,3.259062976725456,72928550
0,0,0,0,0,0,0,0,0,0,0,0,0.9547375982686994,-0.7391295956527704,-0.6099644792037581,-1.0270856889588462,3.2591003488421855,3.258878476486024,-0.5400597381663009,-1.3646774607512306,-1.3901026952389115,-0.8277561936087838,3.2593175005099173,3.259069664367397,72929771
0,0,0,0,0,0,0,0,0,0,0,0,0.12213994528531376,-0.37464170153638143,-0.8432829312423386,-1.294498919784894,3.2586467693623025,3.258835596899461,-1.1452220970656988,-1.5336757461638149,-0.9889232503084243,-0.8689764581890652,3.259206170941135,3.259208137894647,72930805
0,0,0,0,0,0,0,0,0,0,0,0,-0.1754463524158421,-0.22458321149149077,-1.1037028555515833,-0.23486447749906508,3.258837563852973,3.258520490946828,-0.6825316885151491,-1.6109825266578823,-1.2952404612589432,-0.8843316774763675,3.2591058563120194,3.259121985330818,72931839
0,0,0,0,0,0,0,0,0,0,0,0,-0.16974808809138395,0.09383745120018139,-1.0728067365654392,-0.5336714665498098,3.2588662813742495,3.2590224574831073,-0.6964797492599187,-1.2883274064454324,-1.1552543467586454,-0.4660338361303611,3.259067697413885,3.2592919301142604,72932873
0,0,0,0,0,0,0,0,0,0,0,0,-0.01800745940297358,0.19156671661933858,-0.1839982728956071,-0.5918598522972884,3.2585476349052946,3.2583702156985064,-0.48648700553023877,-1.0675954899305689,-0.7590937804095482,0.02735166875739917,3.259468169148942,3.258935124747172,72933907
0,0,0,0,0,0,0,0,0,0,0,0,0.8849072080739985,0.5134944574230262,0.18136098162662764,-0.3503191411875654,3.2591739129035364,3.259087760339708,0.2636681513390721,-2.6406232882289036,0.5518551649874645,-0.7802192545198504,3.259704990351795,3.259244723229971,72934941
0,0,0,0,0,0,0,0,0,0,0,0,0.2138692157112617,0.3301114475859937,0.5304275668177088,-0.4215134169475337,3.2588454316670212,3.2588072727688875,-1.4517607869816764,-1.0409723807540392,-0.9930176607391429,-0.8622616722895708,3.2590413402368235,3.2593643140035047,72935975
0,0,0,0,0,0,0,0,0,0,0,0,0.2976862189395688,0.2249927312127031,0.28902336228172326,-1.0010770560594864,3.258771474214968,3.258674700102174,-1.4933642141061085,-1.5499483525691453,-1.1418853571278282,-0.03941106073988208,3.2595484208522345,3.259459514553489,72937009
0,0,0,0,0,0,0,0,0,0,0,0,1.0192926191440366,-0.04086936007372857,-0.2325375714942898,-0.8174851557594722,3.259189648531633,3.2585637639240934,-0.4669929226628449,-0.9161916036834244,-0.7759029717329706,-0.17088656078416833,3.259459514553489,3.2593060921795476,72938043
0,0,0,0,0,0,0,0,0,0,0,0,0.8148226874855384,-0.2586276362690492,-0.4331188360594315,-1.063305957711453,3.2588296960389247,3.2581440160446187,-0.5609885169253965,-0.5845746498792946,-0.3675693234883932,-0.19667214115525972,3.2591353606147004,3.2589457462961366,72939077
0,0,0,0,0,0,0,0,0,0,0,0,0.5141667621334507,-0.0033186439655594783,-0.8805102801931237,-1.0760710926140657,3.258697910153616,3.258880443439536,-0.4114347471517023,-1.0603858185274384,-1.4031015042187576,-0.40259014398934173,3.2593088459144646,3.2591263126285446,72940111
0,0,0,0,0,0,0,0,0,0,0,0,0.9911958683962665,0.046749764293404134,-0.4236522821965554,-0.9699189388655352,3.2585287521515784,3.2589166353841583,-0.42165857811672425,-1.0926501503765762,-1.2587200354003947,-0.3592129181877277,3.2592494439184003,3.258959908361424,72941145
0,0,0,0,0,0,0,0,0,0,0,0,1.7872817501165568,0.3367349668425282,-1.2308361090226303,-0.9947765105696332,3.259077138790743,3.258493740379064,-0.030540493791162224,-0.8106877578124712,-0.8119591965626712,0.2780552361077352,3.25900160777588,3.2590488146601695,72942179
0,0,0,0,0,0,0,0,0,0,0,0,1.1125234618810966,0.28213430430105974,-0.24629995182752035,-1.0029641512589635,3.2590067218550107,3.258983118412866,-0.201897549855417,-1.2665681799135422,-0.6357575339981953,0.4649496513545097,3.259335203091526,3.2594174217483305,72943213
0,0,0,0,0,0,0,0,0,0,0,0,0.7436421804001546,0.23757651300150312,-0.3323329248825222,-1.343232553390569,3.2590067218550107,3.258562977142689,0.2136284606013847,-0.7580568025179866,-0.1623692586862157,-0.23791758274049551,3.2592557381696388,3.259442598753285,72944247
0,0,0,0,0,0,0,0,0,0,0,0,0.07732684341989081,0.39116214408423233,-0.014150656956512565,-0.7434309295929585,3.259056289083515,3.259020883920298,0.5909106005323649,-1.8665409286667023,-0.04956840867619618,-0.9991093157660145,3.2591062497027217,3.2594307970322127,72945281
0,0,0,0,0,0,0,0,0,0,0,0,0.045444100552094045,-0.25743684261284383,-0.8837903718698468,-0.7300190603755784,3.25885172591826,3.258664078553209,0.3159371871873363,-0.6449896270024332,-0.4408155251521498,0.674480161008854,3.2595118355169097,3.259739215342905,72946315
0,0,0,0,0,0,0,0,0,0,0,0,-0.024746635526017607,-0.47876395926045884,-0.7877058729774801,-0.8389391111062897,3.2588261555226032,3.2585047553187314,0.3038943176143548,-1.065710361684604,-0.5987312076963434,0.4220610168052932,3.259016163231869,3.2589248965889093,72947167
0,0,0,0,0,0,0,0,0,0,0,0,-0.06277964863534552,-0.9636061982639071,-1.4355731529680673,-1.2961503739536253,3.258882017002346,3.258582253287107,0.024574330398360537,-0.8969461437399557,-0.8016401650476652,0.24108201755070893,3.25944338553469,3.259254951388234,72948019
0,0,0,0,0,0,0,0,0,0,0,0,-0.012894560443706564,-0.9821136572496483,-1.0332989017127636,-1.3846294503962338,3.258625919655075,3.2587242673306784,-0.39715427126339325,-1.0716088618765904,-1.049016040446286,-0.4597631883338914,3.259199089908491,3.2595067214377784,72948871
0,0,0,0,0,0,0,0,0,0,0,0,0.983044026260856,-0.9274087461720403,-1.4860329849759322,-1.2904658783037517,3.2588666747649517,3.2584677765927044,-0.3378411814977147,-1.237508408726264,-1.2565339632670836,-1.0431309155381816,3.2596373271509798,3.258994133352534,72949723
0,0,0,0,0,0,0,0,0,0,0,0,0.6973007556558556,-1.5109715951647273,0.6500344693701826,-1.6807110286606584,3.2586251328736697,3.2588548730438793,-0.8712923492541729,-1.2478412089158546,-1.4497273504409016,-1.1628574088641892,3.259412701059902,3.259288389597939,72950575
0,0,0,0,0,0,0,0,0,0,0,0,0.7017869832261779,-0.7807318426050952,-1.0405211616183712,-1.3116889133082523,3.2590122293248447,3.2586872886046514,-0.649694186412595,-1.07020209672476,-1.6495863496764123,-0.30670706113661067,3.2593230079797513,3.259311993040084,72951426
0,0,0,0,0,0,0,0,0,0,0,0,0.4248769074531683,0.01142760651440698,-0.19617450191670677,-0.5951556796021079,3.2589217494632896,3.2588556598252842,-0.45157515425385886,-1.0720455255562693,-0.5018233420638254,-0.1786249492913424,3.259302551663226,3.2591459821636652,72952278
0,0,0,0,0,0,0,0,0,0,0,0,0.6076226243522911,0.07654714304770745,-0.10448339038889293,-0.09409748245447665,3.258974070426711,3.2584335516015948,-1.1551504916132083,0.920876886949168,0.7928297868764146,0.12566511936964028,3.2592820953467,3.2591861080153115,72953130
0,0,0,0,0,0,0,0,0,0,0,0,0.013533033553723518,0.2659022171380778,-0.003497243344455164,-0.5788091157447238,3.258640081720362,3.2584925602069568,-1.246827441075735,1.2752196282410178,-0.77032980565188,-0.32621294572507686,3.2594209622646524,3.2589563678451023,72953982
0,0,0,0,0,0,0,0,0,0,0,0,0.39971209761048526,0.16123904719818202,-0.14495503246248156,-0.8560720629777983,3.2584886262999326,3.2583800504660667,-1.0527119460954601,-0.942280881676779,-1.9316789545630162,-1.019510950983876,3.2590023945572844,3.2592982243654993,72954834
0,0,0,0,0,0,0,0,0,0,0,0,0.7343109529389087,0.044544809406377,-0.1336568514891686,-2.1573915907611356,3.258889491425692,3.2589508603752684,-1.2844410996962905,-1.4017356516999784,-1.1863640768961998,-1.0129987612961247,3.25933913699855,3.258786423061659,72955685
0,0,0,0,0,0,0,0,0,0,0,0,0.1789589379976914,-0.15624259188682935,-0.38729747382372304,-0.9312014259340079,3.2591644715266788,3.2586924026837827,-0.8131535307351982,-0.9894665228684572,-1.0773146006243943,-0.3762207718158688,3.259633786634658,3.259503180921457,72956537
0,0,0,0,0,0,0,0,0,0,0,0,0.06302040374522254,-0.21938297979628799,0.2808801747417658,-0.651588756035418,3.2586381147668497,3.2586530636135413,-1.2450957352037113,-1.562227649954277,-1.3951148861783607,-0.8146731990186213,3.2592329215088984,3.2591625045731667,72957389
0,0,0,0,0,0,0,0,0,0,0,0,0.6052670008262396,0.13545936768762679,0.47479936776153653,0.17433974436995317,3.2588702152812736,3.2588442514949145,-0.7286449466520484,-1.6240592269968064,-1.3806735134927646,-0.5306726492253123,3.2593717884268507,3.259372575208255,72958241
0,0,0,0,0,0,0,0,0,0,0,0,0.36962124939218155,-0.040371720835175616,0.7066119201912784,0.49971830841521125,3.2585771392079756,3.258788783405874,-0.7353790086959611,-0.9168285032306317,-1.0586474250134736,-0.273642572598764,3.2595161628146365,3.2594276499065935,72959093
0,0,0,0,0,0,0,0,0,0,0,0,0.15092198263668807,0.1465297754442424,0.3251629859403355,-0.2257732183662913,3.2591668318708935,3.259099168670078,-0.02309557474798855,-0.7412818361856742,-1.3116011871816142,0.26248955279464153,3.259087760339708,3.259191222094443,72959944
0,0,0,0,0,0,0,0,0,0,0,0,0.17969811912752617,-0.20234680203757308,-0.2681756220073249,0.32279005322337784,3.258909554351515,3.258642442064576,0.27161110301150115,-1.12693178974769,-1.1640950160139818,-0.22562845058780318,3.2593336295287165,3.2593053053981427,72961162
0,0,0,0,0,0,0,0,0,0,0,0,-0.03762152643460351,0.12017692568027087,-0.32788800333595314,-0.740532820288279,3.258555896110045,3.2586636851625066,2.0627103165042775,-1.5235298065578706,-0.6223181274316462,0.40900831329921644,3.2590641568975633,3.2591648649173814,72962379
0,0,0,0,0,0,0,0,0,0,0,0,0.10030086044083363,-0.10011675359210415,-0.4180570862361295,-0.9118839754919976,3.2587663601358363,3.2589197825097775,-0.20930116287483727,-1.1845918517818275,-0.9632179216406251,-0.37289150630134416,3.2590614031626464,3.259407193590068,72963596
0,0,0,0,0,0,0,0,0,0,0,0,0.3052373534723941,-0.49429502419174004,-1.025619128420249,-0.7108868969544049,3.258892638551311,3.2582935045115358,-0.23876140579717225,-1.7489560543246334,-1.0728020158770104,-0.5410101701033319,3.2593257617146683,3.259442598753285,72964813
0,0,0,0,0,0,0,0,0,0,0,0,0.5744169085522781,-0.829275075110802,-1.0126462832267622,-1.6508330048123603,3.2589520405473755,3.258672733148662,-0.24890695201241397,-1.4330263415606428,-0.9279571328112044,-0.390877329215685,3.2594170283576283,3.2589732836453056,72966030
0,0,0,0,0,0,0,0,0,0,0,0,0.49789022182109616,-0.5795309876836524,-1.1552043861394388,-1.4053835636834577,3.258599562478013,3.258641261892469,-0.04451569849439841,-1.5581741521566095,-0.7847023349645537,-0.26182668946107496,3.25933913699855,3.259274227532652,72967247
0,0,0,0,0,0,0,0,0,0,0,0,0.15067808040119177,-1.1074770459505374,-0.8485559402174878,-0.23071617254211574,3.258906013835193,3.2588674615463566,-0.033372513457836324,-0.9849590522002043,-0.5939916365136666,0.3160913963426824,3.259357626361564,3.2589815448500565,72968464
0,0,0,0,0,0,0,0,0,0,0,0,0.2935095898520458,-0.8834701518380822,0.7657393295454179,-1.8842639665918308,3.259083039651279,3.2588662813742495,0.3316224612739636,-0.64919458022053,-0.17811983562944358,0.05991301058685905,3.2593875240549472,3.259060222990539,72969681
0,0,0,0,0,0,0,0,0,0,0,0,0.7962263222010519,-0.7486240802555179,0.4044327860394461,-1.3902958500737965,3.2588898848163943,3.258640081720362,-0.23286919985642432,-0.19659739692180117,-0.9107317341246287,0.16578625032737854,3.259471709665264,3.2591861080153115,72970898
0,0,0,0,0,0,0,0,0,0,0,0,0.680015561582513,-0.18187829040030126,-1.1500486075936087,-1.9456651742059201,3.258723087158571,3.2585153768676967,0.32477903661477997,-0.28225232151178375,-0.12001366853876931,0.022586133788363192,3.259127492800652,3.2591687988244056,72972115
0,0,0,0,0,0,0,0,0,0,0,0,0.36679316363253156,0.20123862042887453,-0.9187946699612939,-1.1782181356213255,3.2588898848163943,3.2588056992060777,0.03543663447339946,0.1560301609075261,-1.3561404891181574,0.17955335134903805,3.259333236138014,3.2592663597186036,72973332
0,0,0,0,0,0,0,0,0,0,0,0,0.35910316218175437,0.07547712033714299,-0.4144862788303231,-0.8630197361731214,3.25885172591826,3.2587482641635255,1.0031333092610013,-1.0892925607314778,-1.5398193287634048,0.8085414181401035,3.2591605376196546,3.2588949988955256,72974549
0,0,0,0,0,0,0,0,0,0,0,0,0.46452951008433224,0.29185066125996845,-0.1863110168350955,-0.868536647383767,3.25857792598938,3.258700270497831,-0.8708647335606495,-1.1081312546886508,-0.6644203739667384,-0.16344754260153085,3.2593497585475157,3.259267146500009,72975766
0,0,0,0,0,0,0,0,0,0,0,0,0.47308025039199,-0.008069623478606161,-0.1656997043728476,-1.09053174144408,3.2592329215088984,3.2589508603752684,-1.1611441923551789,-0.8112998737454263,-1.022257998258829,-0.13421153237957148,3.2590614031626464,3.2592167924900997,72976983
0,0,0,0,0,0,0,0,0,0,0,0,0.19397938179723997,0.16205572629639223,0.2953431839159946,-0.793509566010185,3.258793504094303,3.2585728119102493,-0.5750852793556784,-1.374606642080145,-0.8547640388922737,0.024629011705995997,3.259195942782872,3.259075171837231,72978200
0,0,0,0,0,0,0,0,0,0,0,0,0.6536414687206111,0.4214075948485845,0.27377396509337004,-0.7991307257569701,3.2590157698411666,3.259062583334754,-0.30107134593383617,-1.3653812367178484,-1.136618249013215,0.002316284455810124,3.2593123864307865,3.2590680908045875,72979417
0,0,0,0,0,0,0,0,0,0,0,0,0.3967793699239933,0.2485497532546226,0.14126542106454623,-0.5464330609361007,3.259018916966786,3.258880050048834,-0.8819410421778013,-1.1390918897499906,-0.8939984672067722,-1.0851442557745283,3.2590653370696705,3.259229380992577,72980451
0,0,0,0,0,0,0,0,0,0,0,0,-0.07887837635020928,1.4725503054321174,-1.2152598041605716,1.0296273862871392,3.2586058567292517,3.2585747788637613,-0.7619564845510107,-1.232020608427597,-0.5945903771627399,-0.772203525567475,3.259156997103333,3.259021670701703,72981485
0,0,0,0,0,0,0,0,0,0,0,0,1.145561199851179,1.128726831522802,0.3929162732262937,-0.04570727893200861,3.259254951388234,3.2589583347986144,-0.40637810306288036,-1.2444938474290188,-1.2140446202808164,-1.7401787209723854,3.259195942782872,3.259179026982668,72982519
0,0,0,0,0,0,0,0,0,0,0,0,0.13207896138178843,0.48263020308377774,0.4735562531419102,-1.4776679250798137,3.2590444873624427,3.2587073515304743,-1.1770175071975597,-2.0146883266792686,-1.3253973991152521,-1.0589283059749968,3.2592860292537242,3.2592002700805986,72983553
0,0,0,0,0,0,0,0,0,0,0,0,-0.05130050793892239,-0.179869244083076,-0.8988108156693954,-2.166571756192655,3.2587647865730265,3.258845038276319,0.3801963782544587,-0.841483955560202,-0.4190236471919592,0.27897065627225115,3.2593552660173493,3.2591534565870113,72984587
0,0,0,0,0,0,0,0,0,0,0,0,-0.40222429063609727,-0.4390519546332305,-0.8140174167176981,-1.9345369380160495,3.258990986226914,3.259167618652298,0.7659179289243137,-1.4807662702520215,-1.4834562758751244,0.6689640365796132,3.2589256833703137,3.2590346525948823,72985621
0,0,0,0,0,0,0,0,0,0,0,0,-0.45543707077945117,-0.8068337091009269,-1.1701127135887996,-0.7699006163955469,3.2588808368302384,3.2585968087430963,0.11746489017783285,-0.5419460465843733,-0.853011483313022,0.3464005764008255,3.259409947324985,3.2592112850202657,72986655
0,0,0,0,0,0,0,0,0,0,0,0,-0.0454134160773058,-0.8181676886281595,-1.1298735654203373,-0.550846904617179,3.2591373275682125,3.258839137415783,0.4816069938668005,-0.6515576781699274,-0.2782605860543949,0.6756949514979066,3.259256131560341,3.2593017648818208,72987689
0,0,0,0,0,0,0,0,0,0,0,0,0.7031780127499119,-0.9012738348572057,-1.141280715618219,-1.1016808273411784,3.258666045506721,3.2589634488777453,0.27770354481977755,-0.8098533761326522,-0.5552497333585897,0.22933379761383504,3.2588647078114397,3.2589508603752684,72988723
0,0,0,0,0,0,0,0,0,0,0,0,0.15900616157128353,-1.1501367271109495,-1.1120683088384042,-1.3001908898581134,3.258926076761016,3.2586597512554825,-0.09432682923398365,-1.045754831523279,-0.8977632162288685,-0.2683097682368479,3.2594429921439874,3.2589732836453056,72989757
0,0,0,0,0,0,0,0,0,0,0,0,1.0068536051337247,-0.6182130954519625,-1.3601711702550852,-0.730123308911718,3.258852512699665,3.25922820082047,-0.6643507438124112,-1.585549030965451,-0.8568415351917189,-0.6807897544848626,3.2590385865019065,3.2589886258827,72990791
0,0,0,0,0,0,0,0,0,0,0,0,1.3969016667487224,-1.2684190831683972,0.4987486003337622,-2.723615744544952,3.2586967299815095,3.258784456108147,-0.6213374044105296,-1.0773004385591076,-1.1375246211915757,-0.6508668840964894,3.2591294597541642,3.259051175004384,72991825
0,0,0,0,0,0,0,0,0,0,0,0,1.410411096860301,0.015186848066669471,0.03371948405736495,-0.3546991532682363,3.2589532207194827,3.2587718676056703,-0.8319088258634597,-0.9726600852799516,-1.1951575392672467,-0.22889674054345374,3.259527964535709,3.259387130664245,72992859
0,0,0,0,0,0,0,0,0,0,0,0,1.0256037861828549,0.45973289724980554,0.3352451962524886,-0.08230559614963484,3.258738036005263,3.258837563852973,-0.29478850302559173,-1.2831291417037418,-0.3296130215660359,0.11468558486528216,3.25899846065026,3.2591526698056064,72993893
0,0,0,0,0,0,0,0,0,0,0,0,1.245391565011926,0.5059665329416433,0.2340021650793749,0.1059586055229432,3.2588647078114397,3.258843464713509,-0.7465599592399548,-2.029391697572672,0.4453879052863008,-0.31211657668549736,3.2593509387196224,3.259232528118196,72994927
0,0,0,0,0,0,0,0,0,0,0,0,1.2528825107672823,0.3653104740751355,0.2417051484233318,-0.640052573687145,3.258833629945949,3.2587514112891447,-0.6291706000769853,-0.690532468620833,-0.5072883257017523,0.20144082324991502,3.2593525122824323,3.2592994045376065,72995961
0,0,0,0,0,0,0,0,0,0,0,0,-0.018741919844379406,0.20467331465164598,-0.14997076391825245,-1.1295376097604763,3.258725447502785,3.2586503098786244,-0.27919095506560265,-0.8127184406183291,-0.4001943946116441,0.16505375683948478,3.2588847707372626,3.258673913320769,72997004
0,0,0,0,0,0,0,0,0,0,0,0,0.12630673960527652,0.16846012693168244,-0.45937137119428767,-1.4068115719332184,3.2587514112891447,3.2586101840269786,-0.43678484401522205,-1.542869286879216,-0.9777859661323983,0.05283433828763226,3.259271080407033,3.2592997979283087,72998047
0,0,0,0,0,0,0,0,0,0,0,0,0.06927492252289325,-0.07000662922938218,-0.7442188911698927,-1.0779219958689208,3.258572025128844,3.2586888621674612,-0.6950485938845389,-1.329334846655708,-0.5856985671160897,0.1993094324242392,3.259024031045917,3.258950466984566,72999090
0,0,0,0,0,0,0,0,0,0,0,0,0.45178089759122103,-0.4822682836375574,-0.1281804595208716,-1.0843826513746562,3.258775408121992,3.258723480549273,-0.41935448877268894,-1.2884214268233092,-1.2848045927053202,0.21098841559748835,3.2592215131785287,3.258978004333735,73000132
0,0,0,0,0,0,0,0,0,0,0,0,1.685545800393319,-1.7311374224588183,1.0757304162657757,-1.0287572060534007,3.259109003437638,3.258932371012255,-0.8212876702890003,-1.6133365766211243,-1.6188963674183328,-0.6534369055553562,3.259143621819451,3.25940916054358,73001175
0,0,0,0,0,0,0,0,0,0,0,0,-0.018282832894662964,0.6032256964714166,0.0929865471108612,-0.7482338366787239,3.258474464234646,3.2587958644385173,-1.0534027401688981,-1.5680934987179636,-1.6179270527275862,-1.1728275028261546,3.2592718671884375,3.259083039651279,73002218
0,0,0,0,0,0,0,0,0,0,0,0,0.8650350767415853,-0.2904977906343687,-0.48409086276183877,-1.0959979052541142,3.2587140391724154,3.258926076761016,-0.8251944333546678,-0.950564509697498,-1.0176089069377072,-0.31176763913245664,3.2593013714911185,3.2593029450539284,73003260
0,0,0,0,0,0,0,0,0,0,0,0,0.42934582583258457,-0.5728032198909783,-0.10215137030498626,-0.8164359827561357,3.259199876689896,3.2587045977955578,0.38578291961943145,-1.434288338933985,-0.7619313075460562,-0.4179512641371803,3.2595059346563735,3.259200663471301,73004303
0,0,0,0,0,0,0,0,0,0,0,0,0.3716546859329564,0.10241100816857912,-0.7717349972409007,-0.9623308256066829,3.258462269122871,3.258470530327622,-0.435503963888164,-0.17001205325270333,-0.9288843546967929,-0.24461623962119097,3.259348578375408,3.2589772175523297,73005346
0,0,0,0,0,0,0,0,0,0,0,0,0.3768655391771244,-0.519909872997984,-0.8340154330748835,-1.3618875338897147,3.258893425332716,3.2583627412751603,-0.11722924914708722,-0.7014171959659093,-0.770795186852835,-0.22790185545705025,3.2592643927650915,3.25922505369485,73006388
0,0,0,0,0,0,0,0,0,0,0,0,0.0025023582580516643,-0.5670463403518605,-0.7263628871873482,-1.2171933194629336,3.2589662026126627,3.2589292238866356,0.2202315235413937,-0.8025241139559881,-0.7964773054691917,0.085925577393243,3.2592565249510432,3.2591518830242014,73007431
0,0,0,0,0,0,0,0,0,0,0,0,-0.26994155287045873,-0.2188373468920406,-0.4843874793514584,-0.8972522017064335,3.2586916159023778,3.258741969912287,0.021136489049969797,-0.9331821481206594,-0.6643715935196391,0.21627912715424621,3.2593017648818208,3.259258098513853,73008474
0,0,0,0,0,0,0,0,0,0,0,0,0.3988454578930685,-0.7798832988599895,-0.9108835829357603,-1.4791738246886519,3.258996100306046,3.2587474773821206,0.18706632698372924,-1.1020620229318168,-0.4199056291467701,0.16574848481994686,3.259037012939097,3.2593934249154835,73009516
0,0,0,0,0,0,0,0,0,0,0,0,-0.026497224151757256,-0.4750515312017835,-1.5703098619353606,-0.8020768287273441,3.258871395453381,3.2587266276748927,0.008440590910982003,-0.9275936398021746,-0.8430472902115929,-0.6925257793099616,3.259654636341886,3.2591058563120194,73010559
0,0,0,0,0,0,0,0,0,0,0,0,-0.20520439209990407,0.9894201027655724,-1.1282465014751555,-0.6074432381919906,3.258786816452362,3.2588273356947104,0.24347934049121625,-1.2070068606146407,-0.5193193935536615,-0.033212403441954065,3.25929665080269,3.2590118359341425,73011602
0,0,0,0,0,0,0,0,0,0,0,0,-0.12269501956641907,-0.6596379231974987,-0.005351687115631951,-1.6410269547733014,3.2591227721122227,3.2591782402012632,-0.24329995433091572,-1.0168390413330841,-0.8864532335344831,-0.2565572210022474,3.2594280432972957,3.259291536723558,73012644
0,0,0,0,0,0,0,0,0,0,0,0,0.08030402425575545,0.2796394204663539,-0.14694008194685956,-1.0211683060131438,3.258951647156673,3.258292324339428,0.015213992025135997,-0.47994885205612803,-0.3398010539771383,0.8625779584143112,3.259175093075644,3.2590987752793756,73013670
0,0,0,0,0,0,0,0,0,0,0,0,0.7225587990950106,0.12323003092170129,0.01714278663906892,-0.7778203580165336,3.258843071322807,3.2586621115996968,0.269081600794983,1.0940466873701438,0.3474855479580817,-0.5884633169726511,3.2588788698767264,3.259059042818432,73014695
0,0,0,0,0,0,0,0,0,0,0,0,0.9101302397406387,-0.20285624299719843,-0.214494706928099,-0.5683795414423396,3.2587313483633213,3.2591892551409307,-0.7215088393102692,0.007911873806938386,-1.1856394512223543,-0.5034606341672699,3.259412307669199,3.2593847703200303,73015720
0,0,0,0,0,0,0,0,0,0,0,0,0.6137138859884602,-0.1594251226693538,0.08347278636369541,-0.48992366670652227,3.2588717888440835,3.2583277295026454,-0.5920789709185327,-1.5301430976561423,-1.5636324481525954,-1.23071219095137,3.259118051423794,3.259071631320909,73016745
0,0,0,0,0,0,0,0,0,0,0,0,0.5319676914176572,0.06330521861376984,0.0575900384891079,-0.3252754956812257,3.259002001166582,3.2589603017521265,-2.0297835147122756,-2.0205431605032875,-2.1556976503965437,-1.3805975890871989,3.2591518830242014,3.2593053053981427,73017771
0,0,0,0,0,0,0,0,0,0,0,0,0.3735480753836722,-0.09093462120707287,-0.0888284073863515,-0.5861533267680795,3.2588422845414025,3.2587199400329516,-1.2567998953819148,-1.7207483673987825,-1.57922763576837,-0.7709659184176824,3.2596428346208137,3.259674699267709,73018796
0,0,0,0,0,0,0,0,0,0,0,0,0.6291517173232696,-0.3329462209875847,0.6934998146891372,-1.1484065948017352,3.2590539287393003,3.2586243460922653,-1.011415757109613,-1.3013006450296216,-1.3215488578735421,-0.9393957542652791,3.259309239305167,3.2589803646779494,73019821
0,0,0,0,0,0,0,0,0,0,0,0,0.2850855213505651,0.4215661313016571,0.778088257084877,-2.148249977618453,3.258935124747172,3.2586971233722117,-0.4157785672877511,-1.3929233065752156,-0.9628866866691931,-0.12064899452316696,3.2593643140035047,3.2594760369629903,73020846
0,0,0,0,0,0,0,0,0,0,0,0,0.5901753533095542,-0.11219935562602944,0.7245678454122358,-2.3771679612598375,3.2588186810992577,3.258740002958775,-0.10469582136819618,-1.0446749740451542,-0.892918216337945,0.4986235020903947,3.259077532181445,3.2587112854374984,73021872
0,0,0,0,0,0,0,0,0,0,0,0,0.4011070610412432,-0.23646990495561418,-0.2744596450876767,-0.32849028450134804,3.2590433071903355,3.2589162419934556,0.6156462211187149,-0.948938232533721,-0.4140976088163386,0.5467351849955541,3.2590141962783568,3.259067697413885,73022897
0,0,0,0,0,0,0,0,0,0,0,0,0.6364727182951829,-0.16718986835358957,-0.3485854683620296,-0.2500576198169732,3.258681387744115,3.2588953922862283,0.972392972993013,-0.33682505331338086,-0.984872112854971,0.2435517243804603,3.2593847703200303,3.25944338553469,73023922
0,0,0,0,0,0,0,0,0,0,0,0,0.5940207474256453,-0.2100867641075568,-0.5107989443300895,-0.6446532779518698,3.2590149830597617,3.2588584135602012,1.3041515474500116,-0.2986063597925138,-1.4310023463967259,0.9498249351769608,3.2591243456750325,3.2587136457817127,73024947
0,0,0,0,0,0,0,0,0,0,0,0,0.8253667384823248,-1.0822308042324549,-1.124702444637113,-1.347590928982607,3.259081072697767,3.2587392161773696,0.4760542841022353,-0.21640973286744747,-0.4877458557779617,0.3429741433828048,3.2594001125574246,3.2592187594436117,73025973
0,0,0,0,0,0,0,0,0,0,0,0,0.22179210445786765,-1.02177570125767,-1.1698231780318233,-1.0437619142248529,3.258961088533531,3.258789570187279,0.1493794976925251,-0.8718198861861093,-1.1244239240198046,-0.2881929145089286,3.2595779251549155,3.2591353606147004,73026998
0,0,0,0,0,0,0,0,0,0,0,0,-0.0690093837987642,-0.5885034428242972,-0.9751246780305716,-1.3483631549314445,3.258993346571129,3.2588481854019387,-0.4502576887914763,-1.788738869278296,-1.4869011982561584,-0.5020743253319652,3.2595114421262075,3.2592427562764588,73028023
0,0,0,0,0,0,0,0,0,0,0,0,0.1554019159557719,-0.5308488882599937,-0.29401312995113493,-1.8228737739174095,3.2585582564542594,3.2586986969350216,-0.32853355747861357,-1.447118776693198,-1.1845470052417522,-0.41534544412439395,3.2592069577225393,3.259244723229971,73029048
0,0,0,0,0,0,0,0,0,0,0,0,0.22433655552107756,0.021730115619911623,-0.3970472689923369,-1.3076456436688473,3.2585012148024095,3.2584437797598573,-0.49715064730055897,-1.2384438918166032,-1.1798463797386145,-0.36500244915514574,3.2593249749332633,3.258963842268448,73030136
0,0,0,0,0,0,0,0,0,0,0,0,-0.04689689241610675,0.8963273401650595,-0.8761633129314557,-0.1684384904430497,3.2588403175878904,3.258721513595761,-0.33264094980251185,-1.2347708028281692,-1.0558704800451375,-0.13716353621048166,3.259287602816534,3.259259672076663,73031224
0,0,0,0,0,0,0,0,0,0,0,0,0.2837377648040968,0.7899631488279281,-0.714164234896211,-1.4942725532379808,3.258601529431525,3.2587191532515467,-0.21808282352481168,-0.6771048637753562,-1.1980776784512612,-0.17841251831203916,3.2591908287037406,3.2590614031626464,73032312
0,0,0,0,0,0,0,0,0,0,0,0,-0.08575799295401489,0.30231367377205776,0.12279966149326103,-0.5309594310473718,3.2586377213761475,3.2588627408579276,-0.6258051426178386,-0.6603684497318804,-1.256249935179941,-0.051376038953785765,3.259459514553489,3.2592805217838907,73033400
0,0,0,0,0,0,0,0,0,0,0,0,0.06346611541105691,0.9278579983541964,0.0833842734556524,0.0031341437261275915,3.2590197037481907,3.25899846065026,0.11418558528251473,0.0613874389395045,-1.8849260431439927,0.8265673669060906,3.259193582438657,3.2590952347630537,73034488
0,0,0,0,0,0,0,0,0,0,0,0,-0.08033628229335335,0.32195645832496383,0.37792297338521164,-0.598583292792236,3.2585370133563294,3.2585732053009515,0.3436535291258727,0.37102211368347565,-2.687343941610329,1.012101830494622,3.2592954706305823,3.2591507028520943,73035576
0,0,0,0,0,0,0,0,0,0,0,0,0.4731605020952823,0.33871922954550143,0.5309484161077042,-0.42849020105483543,3.2587431500843937,3.2589563678451023,-0.7612452341610472,-1.0553118652477105,-0.9285908852327925,-0.9951250547319715,3.2594760369629903,3.259144015210153,73036664
0,0,0,0,0,0,0,0,0,0,0,0,0.43509365738554684,0.24144039648060756,-0.043773370238944315,-0.8744146912592281,3.259320647635537,3.25869200929308,-2.077746889322625,-1.4883748398273993,-1.9464507754386395,-1.615836181144259,3.2591007422328877,3.259208137894647,73037752
0,0,0,0,0,0,0,0,0,0,0,0,0.5116034283165249,-0.1562004990816711,-1.0250581532786076,-1.2452231937912934,3.2584445665412622,3.2581766674729185,-2.149211031104449,-1.489259575517127,-1.368583043644791,-1.9336805264568957,3.2594807576514193,3.259168405433703,73038840
0,0,0,0,0,0,0,0,0,0,0,0,0.9850184541962688,-0.4517301501906097,-1.3617030336502831,-1.2776098701488816,3.258651490050732,3.258557863063557,-1.2703584993312953,-0.9805833674172602,-1.0166395922469607,-1.2235929994097947,3.2593544792359443,3.259321041026239,73039928
0,0,0,0,0,0,0,0,0,0,0,0,0.9691376649305421,-1.2921405425239254,-0.6438051275974663,-0.8312223590877483,3.2587891767965766,3.2589500735938635,-0.9182222864892824,-0.6775867673858127,-0.42336156646747186,-0.2467594321679392,3.2588056992060777,3.2587667535265386,73041016
0,0,0,0,0,0,0,0,0,0,0,0,1.790302203929687,-1.483459816391446,-0.3448702865684374,0.44715973700997075,3.258771474214968,3.258740002958775,-0.06730954257363587,-1.5674825629571154,-1.4552655047494774,0.21205332422892145,3.2596503090441593,3.2592156123179925,73042104
0,0,0,0,0,0,0,0,0,0,0,0,1.3480264124901784,-0.8034517292322789,-0.06768326374092862,-0.5343264620693281,3.2589142750399436,3.2590374063297993,-0.27022086026917225,-2.655935627929643,-1.5349503320396343,-0.08691613518191994,3.259313566602893,3.259284455690915,73043192
0,0,0,0,0,0,0,0,0,0,0,0,0.053780836317638914,0.3033836964826222,-0.5621769502373875,-1.2451854282838615,3.2589500735938635,3.2587018440606403,-0.1293806945539349,-2.0572937199227477,-1.278943464630063,0.37501070201524517,3.2591078232655315,3.259305698788845,73044280
0,0,0,0,0,0,0,0,0,0,0,0,0.5388449476772484,-0.28032077316293397,-0.45894336211006187,-1.9278469357308072,3.2588363836808663,3.258845825057724,0.7479848203640961,-1.9348811548806613,0.9371711298431312,-0.4387848423462918,3.2594583343813817,3.2596845340352694,73045368
0,0,0,0,0,0,0,0,0,0,0,0,-0.5424531271997841,-0.09657348353546662,-0.31029517773332327,-1.543571489283024,3.258938271872791,3.2589418123891125,0.997696649753648,-1.1039042715912188,-0.9137435333423057,1.369235678820095,3.2592962574119873,3.2591778468105606,73046455
0,0,0,0,0,0,0,0,0,0,0,0,-0.17620835020641684,-0.25860206587339235,-0.5624723866548998,-1.2970122929826131,3.258702237451343,3.2584166358013906,0.694247650414425,-0.6952260130913273,-1.027822116353764,-0.25768821927168595,3.2592462967927807,3.2590999554514832,73047450
0,0,0,0,0,0,0,0,0,0,0,0,0.11671862801535463,-0.3202593708347524,-0.5352914494623481,-1.3981199977540966,3.258957548017209,3.2587773750755042,0.10132564322062054,-0.9891714798416471,-0.6904557574338623,0.39279510888995034,3.2589587281893166,3.2593359898729313,73048444
0,0,0,0,0,0,0,0,0,0,0,0,-0.1069530972186443,-0.5289897238003878,-0.5509822310188092,-0.9347718399491118,3.2587486575542277,3.2587301681912146,0.7671102961433287,-0.2977428672007164,-0.15191962145800847,0.7983356831473927,3.2593053053981427,3.2589559744543997,73049438
0,0,0,0,0,0,0,0,0,0,0,0,-0.028225782898161758,0.07181819341399591,-0.5332875172242542,-0.6315675296267902,3.258594448398882,3.2587938974850053,0.6115529908601035,-0.4408493567525574,-0.24456352526706757,0.45331040064220435,3.259263212592985,3.2594363045020467,73050432
0,0,0,0,0,0,0,0,0,0,0,0,-0.13413757492751774,-0.5852398735570756,-0.8634414510061087,0.5055802232718734,3.2587026308420457,3.2588611672951178,0.030229321745553223,-0.7733105270040663,-0.5435050539380376,-0.03617109491480528,3.259180600545478,3.2593470048125983,73051427
0,0,0,0,0,0,0,0,0,0,0,0,-1.2129604355049652,0.6843286972437737,-2.0476646956997744,1.6937051169520756,3.2586841414790317,3.2589178155562655,-0.3300036585335324,-1.1606949401730227,-0.8541472022708895,-0.2336992542385166,3.259411914278497,3.2592832755188077,73052421
0,0,0,0,0,0,0,0,0,0,0,0,0.3661633451179677,-0.2730005589724253,0.2661492664991935,0.06808845616441442,3.2590728114930165,3.2587643931823242,-0.19243965058799392,-1.2349962157006522,-0.8003466964181299,0.09678434095196019,3.2590928744188394,3.2591117571725556,73053415
0,0,0,0,0,0,0,0,0,0,0,0,0.30865041120653286,0.2501244962363835,0.04762820573189327,-0.055293030177716036,3.2586821745255197,3.258994526743236,-0.05969153162140031,-0.3831739524810257,-0.9161168594499659,1.2260308415926506,3.2592093180667536,3.259128672972759,73054409
0,0,0,0,0,0,0,0,0,0,0,0,1.2440194182419084,0.34199814105011717,0.2906087268124493,0.06812582828114369,3.2588757227511076,3.258751017898442,-2.029739454953605,-0.9327490249573022,0.40602011752368417,-0.6033374194309019,3.2591861080153115,3.2591927956572526,73055404
0,0,0,0,0,0,0,0,0,0,0,0,0.6890757428497961,0.26122952237481145,-0.1025514486493407,-0.6908349860709888,3.258815533973638,3.2587313483633213,-0.912675084194551,-1.0201624059870726,-0.6475954470152194,-0.6529860798103904,3.259047634488062,3.259290356551451,73056398
0,0,0,0,0,0,0,0,0,0,0,0,0.09231896308886565,0.12474773225161222,-0.17519772949191684,-0.5660101492417037,3.2586188386224313,3.258896572458335,-1.4858296019827844,-1.6856307727850404,-1.0608130408302594,-1.1547751968831057,3.2589842985849735,3.2589528273287804,73057392
0,0,0,0,0,0,0,0,0,0,0,0,0.03696456396157312,0.026710835303167736,-0.3677538237278251,-1.110004974604246,3.258979184505842,3.2587663601358363,-1.3453883344397943,-1.0283500466764028,-1.2614399387168809,-0.7392661022265079,3.2594457458789043,3.2591853212339066,73058386
0,0,0,0,0,0,0,0,0,0,0,0,0.25117091550480314,-0.08454949671620092,-0.9125393644022184,-1.1451603347254198,3.2586723397579593,3.2587455104286085,-0.820234956769342,-0.7126477137384073,-0.9684932909599889,0.0908504355967564,3.259149522679987,3.259217185880802,73059381
0,0,0,0,0,0,0,0,0,0,0,0,0.8085481057820446,-0.03504088342677157,-0.42381042525892554,-0.9178863308294213,3.2590303252971555,3.25893001066804,-0.6130600706410492,-1.4631344989698527,-1.3932203165555377,-0.4409701276981982,3.2591727327314297,3.2592148255365876,73060375
0,0,0,0,0,0,0,0,0,0,0,0,0.899845826607445,0.02580997059464104,0.6444388800190544,-2.887835119704618,3.259049994832276,3.2589815448500565,-0.5967205878163084,-1.5844290476356802,-1.4812658764440865,-0.9269811304785168,3.2596286725555266,3.2591003488421855,73061369
0,0,0,0,0,0,0,0,0,0,0,0,0.8824170449277215,0.17931180945775618,-0.30129479185280705,-1.4437722019877675,3.258754951805466,3.258747083991418,-0.6836874703988398,-2.104971492883145,-1.6470068868406875,-0.6134503142178432,3.2590964149351613,3.259126706019247,73062363
0,0,0,0,0,0,0,0,0,0,0,0,0.24388728664961892,-0.07645705657685477,-0.2569277950439209,-2.2523706617797212,3.259140081303129,3.25883048282033,-0.908890665637334,-1.9366879983768461,-1.5347622912838805,-0.9091015230538276,3.2593147467750008,3.259216005708695,73063383
0,0,0,0,0,0,0,0,0,0,0,0,0.442940621726587,0.08611597849321109,-0.4210110570205518,-2.171687802277541,3.258757312149681,3.2585523555937232,-0.12801248169094104,-1.6887401328969158,-1.152096599590373,-0.9752013892175422,3.259407980371473,3.2591546367591184,73064402
0,0,0,0,0,0,0,0,0,0,0,0,0.3904784310434378,-0.2707664931734196,-0.3674741229384092,0.21030902985442038,3.2589654158312573,3.259002001166582,0.24661545117085587,-2.3132478729781956,0.13919579257914932,-0.9725003686547719,3.258854479653177,3.2589481066403514,73065422
0,0,0,0,0,0,0,0,0,0,0,0,0.556411809493519,-0.3492270885976658,-0.31124678984246135,-0.9207226777938219,3.2587730477777774,3.2587026308420457,-0.17893061386711762,-1.5095542084639322,-0.7929186931751601,0.012339879553303665,3.2596510958255642,3.2596259188206096,73066441
0,0,0,0,0,0,0,0,0,0,0,0,0.6967452879840478,-0.04812427140763657,-0.28432470373209756,-0.08862817151882307,3.2586137245433,3.2585999558687155,-0.05371553346103829,-0.9249032407883693,-0.4787820552327699,0.017036177758714886,3.2593328427473116,3.2593336295287165,73067460
0,0,0,0,0,0,0,0,0,0,0,0,0.7662184794209574,-0.3614737345544975,-0.35831205347920103,-0.6271879109368217,3.2589862655384856,3.258898146021145,0.09671943148606198,-0.8242526560130901,-0.7405544567769118,-0.020077481279072912,3.2595940541737143,3.2589862655384856,73068480
0,0,0,0,0,0,0,0,0,0,0,0,0.06014432431987814,-0.19138142959850185,-0.5868897541629975,-0.6750757545323078,3.258845038276319,3.2584481070575837,-0.06779616687252127,-0.6735179273507508,-0.7492672740539639,-0.18996246933489672,3.259407980371473,3.259438664846261,73069499
0,0,0,0,0,0,0,0,0,0,0,0,0.4200979972002503,-0.8077396878885851,-0.4945971482511935,-0.3517589511583985,3.259026784780834,3.2584842990022063,-0.14272175344488064,-0.6494203864837153,-0.660322423019698,0.21386370824142792,3.259548027461532,3.2592820953467,73070518
0,0,0,0,0,0,0,0,0,0,0,0,-0.34409806061959985,1.7238655953247064,-2.042115133060829,0.7695953452104741,3.258835596899461,3.2587883900151713,0.26044234757928225,-0.1745427339723985,-0.8048242693929993,0.13226857570035166,3.2591888617502285,3.2591023157956975,73071538
0,0,0,0,0,0,0,0,0,0,0,0,0.012440194182419083,0.06417775919172278,-0.05196887874232277,-1.3980232236413028,3.2586113641990853,3.2583993266104847,0.16814856149537102,-0.5908087123404397,-0.7686988077996739,0.24009224654343683,3.259223086741338,3.259373755380363,73072557
0,0,0,0,0,0,0,0,0,0,0,0,0.7353137058393604,-0.17661629636481957,-0.5727434245042115,-1.364746304124153,3.2590008209944745,3.258839137415783,-0.5807709551776594,-0.956874496564209,-1.0603940797321891,0.21298762714715327,3.2589233230260994,3.2590708445395045,73073577
0,0,0,0,0,0,0,0,0,0,0,0,0.481034610394789,-0.5228075889119611,-0.4806364990039466,-0.9888980733034698,3.2587891767965766,3.2586876819953536,-1.242687790714239,0.7359030051115757,-1.594979392883705,0.06090671550115532,3.25912552584714,3.258927650323826,73074596
0,0,0,0,0,0,0,0,0,0,0,0,1.0688397847223026,-0.17193258666188557,-0.5044299488580165,-1.1794057821519115,3.258645195799493,3.258575959035868,-2.159005279422436,-0.3337322156110067,-0.9840735297290718,-1.010307182110212,3.2593717884268507,3.259138901131022,73075615
0,0,0,0,0,0,0,0,0,0,0,0,1.1314526356998247,-0.18860920531859462,-0.6072091707240547,-0.9352907222855952,3.2589874457105927,3.2588037322525656,-1.2345316212811017,-1.275491067825683,-1.2414179255268485,-1.3698273384365245,3.259372575208255,3.259170372387215,73076635
0,0,0,0,0,0,0,0,0,0,0,0,0.5983043787842248,-0.11201131487027582,-0.35084982524512115,-0.6631733254400879,3.258816320755043,3.2583505461633857,-0.774454900557387,-1.1009967209096814,-0.5837768535348002,0.1566045113330497,3.2594807576514193,3.2593088459144646,73077654
0,0,0,0,0,0,0,0,0,0,0,0,0.36856696230971364,-0.1984561679907045,-0.38495719253506566,-0.7553896135556236,3.2589937399618316,3.258902079928169,0.20921304335749666,-1.0108138693349205,-0.9449386292622839,0.41877777800295085,3.2590861867768988,3.2595110487355052,73078673
0,0,0,0,0,0,0,0,0,0,0,0,0.1955879563794084,0.3035516743125527,-0.17353408021141054,-0.2956539625709012,3.2588198612713644,3.258609790636276,-0.6852657538969223,-1.2137873427614383,-1.3119678273162636,-0.31540020887854203,3.2591884683595262,3.2589901994455097,73079767
0,0,0,0,0,0,0,0,0,0,0,0,0.609190679692111,0.7148625033929947,-0.6151721853223068,-0.9703308189309618,3.258605069947847,3.258573992082356,-0.5116943015687825,-1.3675708493674812,-1.086399172115227,-0.2368078275689873,3.2590149830597617,3.2590822528698746,73080861
0,0,0,0,0,0,0,0,0,0,0,0,3.0322342911045896,-1.3016562702246033,1.1606874657496768,-0.9911223043349152,3.2585637639240934,3.2587836693267427,-0.5098595273327264,-1.5599585723827565,-1.2650504785836312,-0.30295332705418193,3.2591263126285446,3.259298617756202,73081954
0,0,0,0,0,0,0,0,0,0,0,0,0.4804933047882682,0.45119238510041054,0.23850491505919874,-1.500642728882161,3.2589359115285763,3.258430011085273,-0.3150607127023593,-1.0441155724663225,-1.0168012758256524,-0.32411066581137965,3.2594252895623788,3.2592887829886417,73083048
0,0,0,0,0,0,0,0,0,0,0,0,0.5722866978987096,0.3014179231426624,-0.3986515162767787,-0.8441782884810314,3.2590326856413703,3.258725054112083,0.7292688643060761,-1.486876808032609,-1.022100248587161,-0.5641836362103982,3.2592128585830755,3.2590732048837188,73084141
0,0,0,0,0,0,0,0,0,0,0,0,0.15085353265446813,-0.016847743612258867,-0.6165376444503837,-0.2010553003615499,3.258927650323826,3.2589606951428287,0.9957253689438544,-1.4393280672226032,-1.428410295058524,0.30900603640151453,3.259256918341746,3.2592022370341107,73085235
0,0,0,0,0,0,0,0,0,0,0,0,0.39078684935412994,-0.38357639116959463,-0.9528056565291472,-0.9566089578400799,3.259172339340727,3.2584382722900234,-0.10722296324049987,-0.6718546714609469,-1.0908846129041447,-0.035909490097700364,3.2593588065336707,3.2591841410617994,73086328
0,0,0,0,0,0,0,0,0,0,0,0,0.02932058922297826,-0.7089584957311743,-1.3121287241135506,-1.113342107932819,3.2587282012377026,3.258979971287247,0.5057792789672946,-0.29576411196757696,-0.5129110590113471,0.1355828923681846,3.2590932678095417,3.258950466984566,73087422
0,0,0,0,0,0,0,0,0,0,0,0,0.5402981329319636,-0.4666298230445174,-1.2782884691105447,-1.3137597219657566,3.258804125643268,3.2585562895007474,0.17829410771061274,-0.9156569857188446,-0.4359185976885077,0.12737518875303133,3.2588234017876863,3.259033079032073,73088516
0,0,0,0,0,0,0,0,0,0,0,0,0.6394310163773318,-0.3670217236306338,-0.7450044924026122,-1.0989585636804775,3.258811993457316,3.2586872886046514,0.313192500256598,-0.7726960507268966,-0.3554875082358728,0.251496249615699,3.2592443298392686,3.2590653370696705,73089609
0,0,0,0,0,0,0,0,0,0,0,0,0.3967569466539557,-0.32176369688078127,-1.2437924318066156,-1.5465010698438966,3.2585641573147957,3.2589968870874504,0.09947670691927754,-1.44797479486165,-0.7410520960154647,-0.3281035814408757,3.259233314899601,3.2589119146957293,73090703
0,0,0,0,0,0,0,0,0,0,0,0,0.1358846230369357,-0.802074861773832,-0.18168395539330903,-0.9529905501592815,3.2591432284287487,3.2587647865730265,-0.27176649233895445,-1.6481319842495898,-0.7749588340471785,-0.34333684961042993,3.259056289083515,3.2591082166562337,73091796
0,0,0,0,0,0,0,0,0,0,0,0,-0.9017758013934852,-0.0004909515966119285,-1.5582949231022505,-0.40227425125530375,3.2587683270893484,3.258786423061659,-0.4116625203683996,-0.8391672777136895,-0.9227431324414173,-0.05650900083887587,3.2594492863952262,3.2595570754476872,73092890
0,0,0,0,0,0,0,0,0,0,0,0,0.6164632936076275,0.023850491505919873,0.1973991271733197,-0.6673554619974448,3.2587226937678686,3.2587038110141524,-0.5273406299758708,-1.0381698653900462,-1.0896690356336873,-0.05389295266782673,3.259304518616738,3.258869035109166,73093983
0,0,0,0,0,0,0,0,0,0,0,0,1.0676293215309764,-0.48733240214972523,0.005625487044511681,-0.949583393285679,3.259046060925252,3.2586577843019704,-0.2890941726081577,-0.5453126842156272,-1.7156346816581107,0.2076473483618913,3.2592533778254245,3.2592108916295635,73095077
0,0,0,0,0,0,0,0,0,0,0,0,0.36622510745824666,0.10349165242810873,0.21992467879351124,-0.25643959718222586,3.2587923239221954,3.2587773750755042,0.5943165772338602,-1.4995471357759398,-1.9777284834061246,-0.16597350430172733,3.259372968598958,3.2594913792003846,73096170
0,0,0,0,0,0,0,0,0,0,0,0,0.202749240726142,0.17389521287622603,-0.20606473756608218,-0.1825317123570099,3.258799404954839,3.258848578792641,-0.8254886896000729,-1.4233721403327155,-0.6415073325046696,-0.42918807616091675,3.259046060925252,3.258641261892469,73097165
0,0,0,0,0,0,0,0,0,0,0,0,0.32318265714438643,-0.02809714413847257,-0.14975361225052025,-0.6470470603760553,3.2586428354552783,3.258738429395965,-0.891014992119669,-1.1277134570733853,-1.1640312867201907,-0.000667584021995547,3.2592860292537242,3.259248657136995,73098159
0,0,0,0,0,0,0,0,0,0,0,0,0.583114383591936,-0.012265528710547532,-0.32649972754713624,-1.3231031445387773,3.258641261892469,3.2588001917362437,-0.9602368068977364,-1.5988928435913137,-0.9998524308028734,-0.677108404291678,3.259257705123151,3.259291143332856,73099153
0,0,0,0,0,0,0,0,0,0,0,0,0.8383718417134096,-0.39694302045619734,-0.22698918902745113,-1.0446391754912348,3.2590059350736063,3.25870656474907,-1.219760193796181,-2.021779980871675,-1.6845166903158058,-0.36540882175073885,3.259250624090507,3.2590932678095417,73100147
0,0,0,0,0,0,0,0,0,0,0,0,0.37773807975507734,0.12442082457790667,0.31711460555965965,-0.5013178350112242,3.258678634009198,3.258644409018088,-1.4191880368218466,-1.829735294548904,-1.191101287734662,0.03629461959536309,3.2591739129035364,3.25970263000758,73101142
0,0,0,0,0,0,0,0,0,0,0,0,0.2762834043840652,-1.4203752899617301,2.475242623715713,-2.5567519970836634,3.259110183609746,3.2588607739044155,-0.8977337119261874,-2.1102047693973507,-1.6482645569163032,-0.3201559090800177,3.2591058563120194,3.25935054532892,73102136
0,0,0,0,0,0,0,0,0,0,0,0,0.6274416479398784,0.1952099079143891,-0.06768365713163103,-0.3471550997680544,3.2589842985849735,3.258482332048694,-0.4290216718937959,-1.7867668016870977,-1.0067505367696925,0.09804043746476619,3.2594142746227113,3.2587435434750964,73103130
0,0,0,0,0,0,0,0,0,0,0,0,-0.02307000435233168,-0.15902976501342833,0.25534479085740935,-0.6391646908717978,3.2586853216511393,3.2586381147668497,-0.22003679514369906,-1.2432310632742718,-0.901699483597217,-0.3528034034733061,3.2589815448500565,3.2592462967927807,73104124
0,0,0,0,0,0,0,0,0,0,0,0,0.06873204335356276,0.26634517506899535,0.12824143507974567,-0.3877227291730319,3.2588662813742495,3.258504361928029,0.7686441264920385,-2.206892336236517,1.4089268337400953,-1.49478750166744,3.25900160777588,3.259046060925252,73105119
0,0,0,0,0,0,0,0,0,0,0,0,0.8041047577982852,0.1237406520534339,0.12759273381146596,-0.7891893493162809,3.258490986644147,3.258426470568951,0.4750310748852581,-1.0298315560616917,-1.5601477933106176,0.17662180383465334,3.259309239305167,3.2592388223694346,73106113
0,0,0,0,0,0,0,0,0,0,0,0,0.3199686551056689,-0.32610633684472284,-1.2731830445746235,-1.1637976126429572,3.258913094867837,3.2590802859163626,0.8354505223572877,-0.41766959639425233,-0.10927449575358578,-0.04182726643410521,3.259053141957896,3.259105069530614,73107107
0,0,0,0,0,0,0,0,0,0,0,0,-0.05054441100888383,-0.4541908090342055,-1.0133449451142484,-1.3972490307389533,3.258824975350496,3.258708138311879,0.7599568796106433,-0.48007119656457853,0.3909996737241356,0.6927838436107449,3.259341497342765,3.2590468477066574,73108101
0,0,0,0,0,0,0,0,0,0,0,0,-0.15454511100591553,-0.7993254541546647,-1.0430148652809696,-1.172890838729243,3.258938271872791,3.2586455891901958,0.9648579674789867,-0.16009821416118314,-0.05886462436492733,0.05634613708807672,3.258972496863901,3.2592474769648883,73109096
0,0,0,0,0,0,0,0,0,0,0,0,-0.33777312490619715,-0.33889861570580193,-0.6459778244468956,-1.458915383686469,3.259060616381242,3.2590747784465286,-0.21914655198413752,-1.0531073037513856,-0.8034702185952923,-0.4195889496313273,3.2591900419223356,3.2592407893229467,73110090
0,0,0,0,0,0,0,0,0,0,0,0,0.3359422845771652,-0.8251149684327802,-0.1562063999422073,-2.792078315267362,3.2587396095680723,3.258529145542281,0.10673240503459036,-0.9237844376307055,-0.5137072817930319,-0.35264840753655524,3.2595952343458214,3.259315926947108,73111084
0,0,0,0,0,0,0,0,0,0,0,0,1.2216394211816097,-1.4509346665066083,0.32730893222200064,-1.6008908749688713,3.259107429874829,3.2588871310814773,-0.7374694868885858,-1.14144554632253,-1.1547299569523282,-0.32540531461302213,3.2590995620607806,3.2591487358985822,73112078
0,0,0,0,0,0,0,0,0,0,0,0,0.06991890310274398,-0.6298728024807932,-0.7952967399712491,-1.413773013803126,3.2586896489488657,3.258541340654056,-0.29778653356868423,-1.155681175670764,-0.3488344846766573,-0.48617268635901045,3.2590802859163626,3.2590952347630537,73113092
0,0,0,0,0,0,0,0,0,0,0,0,0.47779189083479534,-0.1358000440359168,-0.38713146294730455,-1.059097857367737,3.258867068155654,3.2589477132496487,-0.13913403023887042,-0.9189543865864737,-0.47215499545991363,-0.17552385038421753,3.2592962574119873,3.2589937399618316,73114106
0,0,0,0,0,0,0,0,0,0,0,0,0.5745042412882139,-0.01798070883520947,-0.9183096192252183,-0.8590374420925906,3.258372969433423,3.2588281224761153,-1.838575570413538,-1.5474660572369165,1.3504017055513506,-0.8090756427139809,3.2590110491527375,3.2589264701517187,73115120
0,0,0,0,0,0,0,0,0,0,0,0,0.43913181294582043,0.015816666581233332,0.06004833698848926,-0.5140097992431878,3.258894605504823,3.258819467880662,-0.330694059216268,-1.0683028064135083,-0.16947035425548007,0.18271385225222733,3.259458727772084,3.2594040464644487,73116134
0,0,0,0,0,0,0,0,0,0,0,0,1.1335769454928573,0.36928844085793977,0.1948078626165226,0.27515319289603146,3.258879263267429,3.2589603017521265,-0.4104953301543391,-0.6563350148600358,-0.45677027186993024,-0.3705551589197109,3.259138901131022,3.2588501523554507,73117148
0,0,0,0,0,0,0,0,0,0,0,0,1.5260864527328555,0.2854958278531823,0.3324458280141149,0.2104353082698951,3.259050388222979,3.2591459821636652,-0.6268311055697329,-1.5373460814173319,-1.446275347027224,-0.20990895151006597,3.2591412614752366,3.2593902777898642,73118162
0,0,0,0,0,0,0,0,0,0,0,0,0.4266629012421252,-0.0405621219351437,0.2730583874056801,-0.8983005879283652,3.2589162419934556,3.258926076761016,-0.6107823384740756,-1.4362824364045186,-1.6347008388877913,-0.13357699317657865,3.2595924806109045,3.2592828821281055,73119176
0,0,0,0,0,0,0,0,0,0,0,0,0.7461063797600721,-0.23041680221757915,-0.7328498998701453,-0.39247764259310275,3.2585582564542594,3.258406407643128,-0.6828656772214982,-1.0924569955416914,-1.8113718165602464,-0.11082878241882115,3.259077532181445,3.2589937399618316,73120190
0,0,0,0,0,0,0,0,0,0,0,0,0.6854297978198286,1.514667107423199,-2.4866017802479004,-0.6836268882306681,3.2586113641990853,3.2586703728044473,-0.1869648321825066,-1.2274364265723736,-1.4357206744814723,-0.01612587167333027,3.2592714737977353,3.2593635272221,73121204
0,0,0,0,0,0,0,0,0,0,0,0,0.6722641911821593,-0.5982662198860907,-1.0035109643353182,-0.7044518118443264,3.258519310774721,3.2582580993483186,-0.9404445338779132,-1.6729667392929481,-1.4982701895559059,-0.8661121804847931,3.25929507723988,3.2592132519737778,73122218
0,0,0,0,0,0,0,0,0,0,0,0,0.1648842054467446,-0.4155236501125872,-0.5796580528805318,-0.6162075896510588,3.2588674615463566,3.2585771392079756,-0.5365070267328055,-2.041355889005171,-1.4575813958145851,-0.6569943376772805,3.2591499160706894,3.2590889405118153,73123232
0,0,0,0,0,0,0,0,0,0,0,0,0.01643822389104651,-0.2707865560992427,-0.4433430604151559,-0.7902912366737409,3.258968956347579,3.258902473318871,0.352801436519794,-2.0405789423679046,-0.02128715768899413,-0.9740833728412833,3.2593674611291243,3.2595067214377784,73124246
0,0,0,0,0,0,0,0,0,0,0,0,-0.2849214774276587,-0.04688351713222469,-0.39008228660610755,-2.013168265005143,3.258872575625488,3.259067697413885,0.7209482575593301,-0.8455319458880359,-0.5633614496423542,-0.023026731375066205,3.2592510174812097,3.2589461396868393,73125260
0,0,0,0,0,0,0,0,0,0,0,0,-0.5620514586033175,-0.003175449749880999,-0.6715415324618259,-0.8348860066993244,3.259324581542561,3.259088153730411,-0.054267460616524286,-0.8545425599268149,-0.32700523459973746,-0.363822670438608,3.259372968598958,3.2592329215088984,73126274
0,0,0,0,0,0,0,0,0,0,0,0,-0.2114183916352262,0.027112880601034235,0.042846935134760754,-0.5484118161692401,3.258645195799493,3.2586648653346137,0.06460773522946063,-0.9610117865814908,-0.5378716990794776,-0.5541092937122933,3.2593548726266466,3.25948901885617,73127288
0,0,0,0,0,0,0,0,0,0,0,0,-0.09756325454273873,-0.14499948561185427,-0.05683787546609347,-0.35878844961982365,3.2589748572081154,3.2585956285709887,-0.19040739421932626,-0.870337983410118,-0.5228052285677467,-0.07160890956031198,3.2592195462250166,3.259132606879783,73128302
0,0,0,0,0,0,0,0,0,0,0,0,0.6637870149358528,-0.007975996491431771,-0.7176138779656741,0.07857035143021958,3.2587687204800506,3.258808059550292,0.1980297324692884,-0.5119201078319677,-0.4927537194196843,-0.0859755380124495,3.2590008209944745,3.2590366195483944,73129402
0,0,0,0,0,0,0,0,0,0,0,0,0.431095234286217,-0.45987884520040095,-0.9445023589733075,-0.8754937619559481,3.2585421274354607,3.2584807584858844,0.054579812834240536,-0.6208346510928453,-0.1664546211307789,0.046323328771988,3.258935124747172,3.2589563678451023,73130501
0,0,0,0,0,0,0,0,0,0,0,0,1.7918234457759195,-1.299155092138659,-0.36018577339479607,-2.089204000139713,3.2589178155562655,3.2589693497382815,0.1544565980978725,-0.5545188134335056,-0.6934793583726118,-0.36037420754125205,3.2589807580686516,3.259113330735365,73131600
0,0,0,0,0,0,0,0,0,0,0,0,0.9633064345486682,-0.5114315165795703,-0.7737271277579221,-2.1731028286341223,3.2586255262643724,3.2584524343553105,-0.2852684480271873,-0.3022342088501702,-0.43176360508961736,-0.017062928326478995,3.2591227721122227,3.2594276499065935,73132699
0,0,0,0,0,0,0,0,0,0,0,0,1.079056534654681,-0.3511515559138722,-1.0290215646054226,-2.6210497404396222,3.258924109807504,3.2587828825453378,-0.07761401863265259,-0.06148263948948854,-0.40253821641662313,0.506760788769816,3.259195549392169,3.259156997103333,73133798
0,0,0,0,0,0,0,0,0,0,0,0,0.7945351355713768,0.0720439996771812,-0.3569650837141375,-2.0017198087835086,3.259038979892609,3.2588387440250806,-0.9177281877670511,1.0898555028266315,-2.5407681394539043,-0.9167380233690766,3.2592663597186036,3.2590649436789683,73134897
0,0,0,0,0,0,0,0,0,0,0,0,0.7153377193615102,0.13539603178453824,0.17224257853538733,0.8603246164708872,3.2589776109430324,3.2587203334236543,0.17170087953816407,-1.5321844020109654,-0.6137485043702727,-0.5670605024171474,3.2591082166562337,3.259170372387215,73135996
0,0,0,0,0,0,0,0,0,0,0,0,0.5934129587904166,0.6062772281500373,0.11369424029520038,-0.13506479681310615,3.258727414456297,3.258907980788705,-0.5341872017606737,-0.9878721103515756,-0.6292823230364707,-0.6397441553764528,3.259252984434722,3.25896580922196,73137095
0,0,0,0,0,0,0,0,0,0,0,0,0.4978410479832945,0.042232065466888596,-0.10571706363166136,-0.7755768508406699,3.258900112974657,3.2585106561792676,-0.985106180322907,-1.4384732292262588,-0.7003499269902619,-0.4735896913516153,3.2589968870874504,3.2588363836808663,73138195
0,0,0,0,0,0,0,0,0,0,0,0,0.311607135725872,0.00017387869046672468,-0.09653453785592768,-0.7960343475382742,3.2587427566936915,3.2587411831308817,-1.0882567630120232,-1.6624195411705422,-1.7960276122126115,-0.7210096265089065,3.2592179726622073,3.258872575625488,73139294
0,0,0,0,0,0,0,0,0,0,0,0,0.5477981266734752,-0.46208891416655945,-0.1964357133431093,-1.136614315106191,3.258758098931086,3.2586758802742812,-1.255402964997645,-1.9027198913955556,-1.7485272584590028,-1.0483130512610734,3.2592702936256277,3.2589453529054344,73140393
0,0,0,0,0,0,0,0,0,0,0,0,1.5740832655529098,-1.5556104249489815,0.7478483137903588,-1.1496217786814902,3.2591538499777135,3.2585728119102493,-1.3009379388019966,-1.9344747822850683,-1.6118074669608433,-0.9771168085475931,3.2590472410973597,3.2592222999599336,73141492
0,0,0,0,0,0,0,0,0,0,0,0,0.24225943592303226,0.8215256716639604,0.13933544627850608,-0.7023994925498357,3.258548421686699,3.2591322134890808,-0.2930623046234017,-1.1506009281397973,-0.9035759572477289,0.02090124140992658,3.2593194674634294,3.2591404746938313,73142591
0,0,0,0,0,0,0,0,0,0,0,0,0.8317439951591485,0.15777091476570543,-0.09284374628588513,-0.6107642425017646,3.2592014502527054,3.258795471047815,0.9664740164845008,-1.0798142051475292,-0.3704312408484507,0.4621664121349349,3.2591192315959012,3.2592553447789365,73143690
0,0,0,0,0,0,0,0,0,0,0,0,0.6598118018879654,-0.34684707484806476,0.06623086526761833,-0.6431505254686505,3.2590739916651237,3.258811993457316,0.350546127622858,-1.700934064499624,-0.40785567854114513,-0.2829568842598062,3.2591007422328877,3.2589186023376704,73144789
0,0,0,0,0,0,0,0,0,0,0,0,0.21967369552537147,0.08855421406676937,-0.5449307018435838,-1.1602496218978908,3.2586916159023778,3.258367461963589,2.2650846558910196,-2.316485478459058,-0.6402473020848396,-0.19169614216043257,3.2594288300787007,3.2592663597186036,73145888
0,0,0,0,0,0,0,0,0,0,0,0,0.1495813071228632,-0.2530580107042802,-0.6849333387533829,-1.360121603026581,3.258799404954839,3.258942599170518,-0.20229959515328347,-0.5168988605617117,-0.8772372695490442,0.08499678194484495,3.2592695068442232,3.259155030149821,73146883
0,0,0,0,0,0,0,0,0,0,0,0,0.3097684275827917,-0.4651074010261775,-0.6388452576214382,-1.1417272140654582,3.258618051841027,3.25844259958775,0.08175642272906575,-1.32677111944808,-0.8551609701110089,-0.314741672842702,3.2592297743832797,3.2590118359341425,73147877
0,0,0,0,0,0,0,0,0,0,0,0,-0.05767068358310265,-0.9839802961325999,-0.9127266183765671,-1.2491216956522102,3.2588092397223996,3.258907980788705,-0.060802073574313345,-1.678311738766639,-0.7354010385752963,0.12607227874663815,3.259256131560341,3.259494526326004,73148871
0,0,0,0,0,0,0,0,0,0,0,0,0.08159670610388589,-0.6742590754340977,-1.0770836802820778,-0.8173297664320189,3.259069664367397,3.2585200975561257,-0.025750568598576617,-1.4395538734857884,-0.7362244053154474,-0.1849782091353189,3.259077532181445,3.259090514074625,73149866
0,0,0,0,0,0,0,0,0,0,0,0,-0.008487404404569198,-0.657399136710064,-0.7964607830596904,-0.13899437653951366,3.2589929531804263,3.258723480549273,-0.4867501839101534,-1.4853492719351375,-0.9418257286340866,-1.0117347969692703,3.2591554235405233,3.259180600545478,73150860
0,0,0,0,0,0,0,0,0,0,0,0,-0.7004695177637956,1.497001897931325,-0.05190239571361491,-1.2587609480334456,3.25886313424863,3.2588013719083513,-0.44712393845605114,-1.3664107401860641,-0.9149024623516157,-0.8316574492046176,3.2594280432972957,3.2591227721122227,73151854
0,0,0,0,0,0,0,0,0,0,0,0,0.016683699689352474,-1.051298493301689,0.02786779735896556,-0.9972737547485535,3.2589083741794074,3.258500034630303,0.08187798045611148,-0.6924722781744335,-0.26163314123548764,0.24167800446486523,3.2590617965533486,3.2589052270537886,73152849
0,0,0,0,0,0,0,0,0,0,0,0,0.824972954389209,0.10746922582021066,-0.014876069411762883,-0.7035489801822876,3.258582253287107,3.2589339445750642,0.6673869332536378,-1.0465101416719127,-0.4886707173193356,0.10558252401143597,3.259376902505982,3.259380443022304,73153843
0,0,0,0,0,0,0,0,0,0,0,0,0.828223541763251,0.38296152150172247,0.15520089330683864,-0.6307587183426283,3.258620412185241,3.258935518137874,0.40912082304010666,-0.8646471935090058,-0.8466389473246273,1.8315873779758665,3.2591294597541642,3.2588493655740454,73154837
0,0,0,0,0,0,0,0,0,0,0,0,0.9286986742852537,0.7071099528205339,0.27803359961910246,-0.5068961151714462,3.258972103473199,3.2583403180051227,1.612917615523054,-2.089157186646126,0.46387451456481393,0.27084084401617575,3.2589642356591506,3.2590130161062496,73155832
0,0,0,0,0,0,0,0,0,0,0,0,0.4777065250523716,0.2794926857343537,0.1323574819990971,0.13671310385621832,3.2588694284998687,3.2590110491527375,-0.2174345156472344,-0.048809951401943136,-0.06637248592048715,-0.37782305214679857,3.2593175005099173,3.258946533077542,73156826
0,0,0,0,0,0,0,0,0,0,0,0,0.8108891738521068,0.22404898691761338,-0.08618560864753826,-0.8406794715737665,3.258917028774861,3.2587321351447267,-0.24544117992415188,-0.6356473846015196,-0.43790364717288577,0.3842144708889092,3.2590802859163626,3.2587321351447267,73157820
0,0,0,0,0,0,0,0,0,0,0,0,0.4805102205884719,0.15329019466521676,-0.28044665818770625,-1.192361318154492,3.2589579414079117,3.2587691138707533,0.014612497641145902,-0.06162898083078633,0.9891478763995023,0.7648073869714006,3.2593631338313975,3.2593068789609525,73158815
0,0,0,0,0,0,0,0,0,0,0,0,0.5944216125514045,-0.3376889392958807,-0.005634141639964776,-2.158695287548934,3.2588674615463566,3.258913488258539,-0.6858739359228534,-1.275253066450723,-1.137352709454621,-1.233546964352961,3.2591377209589147,3.2591880749688236,73159809
0,0,0,0,0,0,0,0,0,0,0,0,0.2417826463917072,-0.012055851466161185,-0.11080675253948599,-1.704652786809538,3.259092087637435,3.2589736770360083,-2.470189126752511,-2.1463196094417105,-2.122944333904306,-1.989878748640865,3.259300584709714,3.2591404746938313,73160803
0,0,0,0,0,0,0,0,0,0,0,0,0.47348701637828544,0.008742714970435496,0.6602783632610276,-2.739903299796975,3.2586782406184955,3.2587018440606403,-1.8933233610777094,-2.389827667454203,-1.877461847956401,-1.4743528216305757,3.2593296956216924,3.2593060921795476,73161797
0,0,0,0,0,0,0,0,0,0,0,0,0.8176157614726736,0.20721029129151,-0.4446396761703105,-0.6431115797891116,3.2587431500843937,3.2585645507054983,-1.3067664154489533,-1.863607020808103,-1.627111545456832,-0.845284503136218,3.259115297688877,3.2589248965889093,73162854
0,0,0,0,0,0,0,0,0,0,0,0,0.8673411330391326,-0.3121201172018191,-0.08737325517812432,-0.9787706230605391,3.2587533782426568,3.2586841414790317,-0.7457857663376052,-1.6862247927456846,-1.456815070726284,-0.5935242883591996,3.2591880749688236,3.258913094867837,73163911
0,0,0,0,0,0,0,0,0,0,0,0,-0.012800146675127348,-0.17842156629819467,-0.4774508210958029,-0.37750086516152204,3.258769507261456,3.25844259958775,0.9513646663862069,-2.658048136001603,2.3101341855685935,-1.4817493536173527,3.258939058654196,3.2591208051587106,73164967
0,0,0,0,0,0,0,0,0,0,0,0,0.3422208001876831,-0.6959061856158001,-0.11870053037411336,-0.8182585618804171,3.259082646260577,3.2586483429251123,1.5902465093429696,-0.7886067376860068,-1.386963830824355,0.9615349962157006,3.259321827807644,3.2592746209233545,73166024
0,0,0,0,0,0,0,0,0,0,0,0,-0.6005478859600885,-0.4489897905575979,-0.4843945603841019,-0.9667309006131769,3.258736069051751,3.2587883900151713,0.37462478573617763,-0.5081801424241236,-0.37789818977095957,0.6070679434618882,3.2591164778609842,3.2592116784109684,73167081
0,0,0,0,0,0,0,0,0,0,0,0,1.1063393600391578,-0.4549044197683835,-0.4397588777254674,-1.182345590871047,3.2589418123891125,3.2589803646779494,0.8727506485880193,-0.41774552079981814,0.2760674328884402,0.28882588014911176,3.2592592786859607,3.2595039677028614,73168137
0,0,0,0,0,0,0,0,0,0,0,0,1.3610976053592687,-0.18820912697424017,-0.8579390952514523,-1.4754743785231563,3.2586904357302706,3.258745903819311,-0.05096573245116859,-0.41586511324228204,-0.22036763672442874,0.25506233633307646,3.2592990111469042,3.259303731835333,73169194
0,0,0,0,0,0,0,0,0,0,0,0,-0.06510694803082323,-0.7188853167158742,-1.0240184216521289,-0.7185831926564208,3.258859987123011,3.258521277728233,0.0755660266358884,-0.5480369148298401,-0.1581926295986926,0.3175579568812796,3.259254951388234,3.258869035109166,73170250
0,0,0,0,0,0,0,0,0,0,0,0,0.8720425453236752,0.6295179640672164,-2.021687534056608,1.9304098761570305,3.2590385865019065,3.2587415765215844,-0.12745111315859714,-0.5398366856380326,-0.48774270865234237,0.2681229076532015,3.259136147396105,3.2591251324564374,73171307
0,0,0,0,0,0,0,0,0,0,0,0,-0.08065492876230822,1.857971698996031,-0.2734828559735841,-0.7604478312072552,3.2584036539082115,3.258422536661927,-0.07516280116591467,-0.9845479589161823,-0.3273348960083599,0.5861596210193183,3.258824188569091,3.2588013719083513,73172364
0,0,0,0,0,0,0,0,0,0,0,0,0.5225031045082932,-0.013648690420233062,-0.7530792299603497,-1.1024628880575762,3.2590948413723515,3.258778555247611,0.9114123000398039,-0.38283602986765264,0.8052082187185547,0.26326059857137185,3.2593572329708613,3.2590747784465286,73173420
0,0,0,0,0,0,0,0,0,0,0,0,-0.49027889851080164,-0.34006462574775526,-0.7710386956976288,-1.4691710792983863,3.2587813089825284,3.258824975350496,-0.2633038715486373,-0.4917600145053881,-0.062340231220749755,-0.5042061095483433,3.25911254395396,3.2590732048837188,73174477
0,0,0,0,0,0,0,0,0,0,0,0,0.07652196604275298,-0.2381575510689677,-0.5859393222259668,-1.0452697807872033,3.258759279103193,3.258732528535429,-1.9041156416077185,-0.8944099538814966,0.4553139394895958,-0.46442486815749023,3.259351332110325,3.2590956281537564,73175534
0,0,0,0,0,0,0,0,0,0,0,0,0.424092486392556,-0.31575662085492856,-0.36517868818982696,-0.9648847180467507,3.259234101681006,3.2589768241616275,-1.3103391898082721,-1.4181298158323545,-1.3425224831727127,-0.08760260195763134,3.2594182085297354,3.259519703330958,73176590
0,0,0,0,0,0,0,0,0,0,0,0,0.6326572218724753,0.08649599391174242,-0.27025901916730627,-1.2801897263753088,3.2587616394474077,3.2585523555937232,-0.4453584009836198,-1.5484223900344836,-0.3295764362307115,-0.49917424907377345,3.259370608254743,3.2588918517699064,73177647
0,0,0,0,0,0,0,0,0,0,0,0,0.12231893805491185,-0.028653398591685125,-0.12671822628000096,-1.3797384237931278,3.258981151459354,3.258909554351515,-0.7412904907811273,-1.2487833796481347,-0.9556333488980947,-0.37339307944692124,3.25923960915084,3.259212071801671,73178703
0,0,0,0,0,0,0,0,0,0,0,0,0.1872205361390753,0.4403477836069803,-0.020470871981486314,-0.7875217661287506,3.2587577055403836,3.258496887504683,-0.624565568514534,-1.6762912841190436,-0.9959098691832863,-0.4696534239832668,3.2592518042626146,3.2593355964822286,73179698
0,0,0,0,0,0,0,0,0,0,0,0,0.763117773904535,-0.44833440164737715,0.08327373066827425,-1.0832917789568637,3.2589461396868393,3.258869035109166,-1.21540299837625,-1.5334157149095193,-0.9876364693208299,-1.422722652283031,3.2592289876018743,3.2589245031982066,73180692
0,0,0,0,0,0,0,0,0,0,0,0,0.8853238088278542,-0.8989087699542962,0.392063008792759,-0.6743220179464838,3.258577532598678,3.258607823682764,-0.9319716849293332,-2.1038511161626716,-1.934894136773841,-1.1471595462750848,3.2590173434039764,3.2595413398195907,73181687
0,0,0,0,0,0,0,0,0,0,0,0,0.7891165720363345,-0.26376728579608033,0.30883097753894057,-1.4440035157207864,3.259110183609746,3.258557863063557,-0.6445848279696498,-1.753142518179717,-0.9030460599715782,0.12841374020740273,3.259262819202282,3.25917115916862,73182681
0,0,0,0,0,0,0,0,0,0,0,0,0.3870913370956584,0.881135771409961,-0.33197061204559947,-1.0077344069164285,3.2586141179340027,3.2588627408579276,0.02860776527020517,-0.9761766047688251,-0.3112176789304827,0.5071754225701597,3.259456760818572,3.2590063284643085,73183676
0,0,0,0,0,0,0,0,0,0,0,0,0.879484710631932,-0.013603450489455519,-0.2884171472093042,-1.1718267168792147,3.2588611672951178,3.2586542437856485,0.37807718254055767,-1.622161510248364,-0.5629995301961338,-1.1332449237400202,3.259548027461532,3.25917115916862,73184670
0,0,0,0,0,0,0,0,0,0,0,0,0.022147503155172246,0.20622012689353547,-0.18050496345817607,-0.6902928936830632,3.2588910649885015,3.258817107536448,0.2098369610115243,-2.8181534311954293,0.6654553849047881,-0.695000206828142,3.2593580197522662,3.259144015210153,73185665
0,0,0,0,0,0,0,0,0,0,0,0,0.20773350092571985,-0.295530044499641,-0.6346115868820651,-0.11908172596475194,3.2587923239221954,3.2585126231327797,-0.4703040922050586,-1.2228687671266516,-0.7250572234460382,-0.7598101448786431,3.259090120683923,3.2591251324564374,73186659
0,0,0,0,0,0,0,0,0,0,0,0,-0.25432118824972966,-0.17772919866194709,-0.6104149115580215,0.05874818071701297,3.258907980788705,3.258587367366238,-0.11056206352258485,-0.7973002788186405,-0.24710954989308712,-0.004153419036080723,3.258873362406893,3.2588717888440835,73187654
0,0,0,0,0,0,0,0,0,0,0,0,0.07083983073709378,-0.24754188627503945,-0.5912799944019311,-0.22967998143195884,3.2584087679873424,3.258518523993316,0.4050240522651734,-0.6208688760839552,-0.3746908753741831,-0.08226507690728627,3.2592848490816175,3.2594551872557624,73188648
0,0,0,0,0,0,0,0,0,0,0,0,0.4621384813950635,-0.2162460823352435,-0.4310948408955146,-0.7117995633840041,3.258732921926131,3.2589803646779494,0.19935427896431432,-0.7137354390305803,-0.3751216381933258,-0.06864707096184144,3.259115297688877,3.259113330735365,73189643
0,0,0,0,0,0,0,0,0,0,0,0,0.5912367214246657,-0.558036119703784,-0.47807827926615226,0.32349146884578095,3.258804912424673,3.2588253687411983,-0.6361104054582601,-1.466335912506093,-0.631805137611048,-1.0107052935010545,3.259230561164684,3.25923803558803,73190637
0,0,0,0,0,0,0,0,0,0,0,0,-0.08924107423318317,0.9533619109823597,-1.7657719332899966,0.8905429232767729,3.2587809155918257,3.2588001917362437,-0.47023642900424345,-1.3877435311965383,-0.8368348642390805,-1.2537920300712622,3.259565336652438,3.25918099393618,73191632
0,0,0,0,0,0,0,0,0,0,0,0,0.031329635540203515,-0.05856171352406901,-0.1302827394345688,-0.833443049602872,3.2591444086008554,3.25893158423085,-1.0059865720256056,-1.7147562402196217,-0.5098260891230213,-1.2083927760592432,3.2590617965533486,3.258917028774861,73192626
0,0,0,0,0,0,0,0,0,0,0,0,0.7099124681845268,-0.11583782623265103,0.21529879752383202,-0.4761667938431255,3.258649916487922,3.258675486883579,-0.4393194603108716,-1.7260929734817712,-0.890135763899775,-0.9473198231839922,3.2592199396157193,3.2592478703555905,73193621
0,0,0,0,0,0,0,0,0,0,0,0,0.8138502256691724,-0.38172194739841786,-0.7325981298206007,-0.8923112144841211,3.2591652583080837,3.2588053058153754,-0.6588196705364788,-0.22450689369522256,-2.527804342246573,0.6933459989244937,3.2593470048125983,3.259031112078561,73194615
0,0,0,0,0,0,0,0,0,0,0,0,1.2001634359554572,-0.18389677809438443,-0.5422399094390761,-0.9821014621378733,3.258673519930067,3.258728988019107,-1.2032366041227107,-1.0789153073925146,-0.6585710476125535,-0.15012930037132505,3.2591924022665504,3.259104676139912,73195672
0,0,0,0,0,0,0,0,0,0,0,0,0.8657490808664656,-0.38298945224159386,-1.0396922874083863,-1.7465799744820565,3.2590724181023143,3.2586656521160187,-0.7744537203852796,-0.9173505326927343,-0.06900781023595455,0.15325085559497542,3.2591872881874187,3.2591802071547753,73196728
0,0,0,0,0,0,0,0,0,0,0,0,1.0069275625857785,-0.44500828325847186,-0.7405119705810511,-1.0738995759367438,3.2589815448500565,3.2590090821992255,-0.3676405272055301,-0.7544592445444159,-0.47221085693965636,-0.36993596195411227,3.2591939758293598,3.258955581063697,73197785
0,0,0,0,0,0,0,0,0,0,0,0,0.5969212170745393,-0.013776935789219829,-0.6863947852128488,-0.3933332673708519,3.258548421686699,3.258516950430506,-0.6570057460076506,-1.3957226748135894,-0.7425737312523998,-0.9073686370096965,3.2591829608896923,3.2595543217127707,73198841
0,0,0,0,0,0,0,0,0,0,0,0,0.23881018624427153,-0.15551088518034042,-0.778426966479655,-0.3415162374396607,3.258962662096341,3.2588757227511076,-0.7462704236829786,-1.5975222703841054,-0.9362061424501111,-0.6176029464725191,3.259342677514872,3.2590385865019065,73199898
0,0,0,0,0,0,0,0,0,0,0,0,0.18693454109842075,-0.16823117354287787,1.088912151922244,-2.9247686058007005,3.2589756439895203,3.258500034630303,-0.5685089669834336,-1.4959401364255112,-0.4537486378846929,-0.20804231262711437,3.2593155335564052,3.259206564331837,73200954
0,0,0,0,0,0,0,0,0,0,0,0,-0.9829189280174885,0.8688312970198747,-0.7783187840364914,-2.2229367760344476,3.258983118412866,3.2590444873624427,-0.19863830788592193,-1.863168390174912,-1.0207985187528752,-0.10760887951956744,3.2592699002349255,3.2593477915940037,73202011
0,0,0,0,0,0,0,0,0,0,0,0,0.01347874563679047,0.5936084739695161,-0.2596126865878923,-1.248201554799265,3.2588037322525656,3.2590318988599654,-0.29817087628494215,-2.2393667387207437,-0.6806123352780741,-0.28910951484555186,3.259414668013414,3.258907980788705,73203067
0,0,0,0,0,0,0,0,0,0,0,0,0.3007735491721093,-0.08650228816298104,-0.1448071175583741,-0.962884719715681,3.2587423633029893,3.2585732053009515,-0.14436612658096867,-1.1503983319280544,-0.6810710288370881,0.29245294242536335,3.2590783189628505,3.2590492080508717,73204123
0,0,0,0,0,0,0,0,0,0,0,0,0.16651717025246263,-0.3268821033098821,-0.16127523914280403,-0.7741032092694293,3.2586215923573483,3.2590338658134774,2.548992365478559,-2.694296335494081,0.8383576796481227,-2.079708335364858,3.2593344163101214,3.2589532207194827,73205180
0,0,0,0,0,0,0,0,0,0,0,0,-0.17478742298929964,-0.5735530225697782,-0.5940581195423745,-1.248388808773614,3.258727021065595,3.25857949955219,-0.08440118842139105,-0.6567756124467388,-0.6299097812068201,-0.12388384626911236,3.2594536136929526,3.25901144254344,73206236
0,0,0,0,0,0,0,0,0,0,0,0,-0.5956537122313632,-0.618248894005882,-0.9427568844266992,-1.041387014554383,3.2590814660884693,3.2588769029232143,0.15473000463604983,-0.36747136920349227,-0.07344683092198741,0.024214377905652274,3.259022064092405,3.259090120683923,73207293
0,0,0,0,0,0,0,0,0,0,0,0,0.322707441175871,-0.41380335257093337,-0.7033573989102123,-0.5369743748872727,3.2589044402723832,3.2588997195839546,0.23320830264190465,-0.5633551553911156,-0.14975715276684196,0.13524890366183562,3.259173126122132,3.2592384289787324,73208349
0,0,0,0,0,0,0,0,0,0,0,0,0.4856321675338945,-0.2355517310561813,-0.7718392457770402,-0.4190507911504258,3.2590385865019065,3.2584201763177125,0.0646159964342113,-0.8228608397079514,-0.03714985098240983,0.4787187193296813,3.2593918513526736,3.258990986226914,73209406
0,0,0,0,0,0,0,0,0,0,0,0,0.854819506981314,-0.5116490616380049,-0.6949655884463296,-0.5627088144670503,3.2589957069153437,3.258979971287247,0.4053375846549969,-0.24160050649648981,-0.05865455372983858,0.478692755543322,3.2588957856769305,3.259132606879783,73210462
0,0,0,0,0,0,0,0,0,0,0,0,1.3741872875913723,-0.2331512609900547,-1.079465660985191,0.4228533056799537,3.258795471047815,3.2586243460922653,-0.02183397076534876,-0.8163313408292938,-0.12274261984141109,0.0853740436284594,3.2594142746227113,3.2593902777898642,73211518
0,0,0,0,0,0,0,0,0,0,0,0,0.1581336209933306,0.3903985727308479,-0.41620578959057203,-0.5306738293974197,3.2588615606858204,3.25856809122182,-0.1145549791520809,-1.0212044979577657,-0.14791175698182069,-0.2593235444216185,3.259195549392169,3.259025997999429,73212575
0,0,0,0,0,0,0,0,0,0,0,0,1.0337343852203351,-0.26012999536156595,-0.44366446061902765,-1.0954011315585532,3.2584732840625383,3.2586294601713965,-0.3158510346235078,-0.9481038508539021,-0.5959644908862698,0.28361069960721724,3.259234101681006,3.2589772175523297,73213631
0,0,0,0,0,0,0,0,0,0,0,0,1.4277903113115205,-0.33153316158451573,-1.013135267869862,-1.435826889971124,3.2590952347630537,3.258287210260297,0.5054264075072298,-1.6645945983641859,0.4779929134837286,-0.3939091913591851,3.259415061404116,3.2594933461538966,73214688
0,0,0,0,0,0,0,0,0,0,0,0,0.38010471822079633,-0.38545522516432107,-0.5916084756384463,-2.1518746795504904,3.2587781618569087,3.2587211202050588,-1.014030625108555,-0.18812730170813818,-0.37202093267690334,-0.03446259909422387,3.259117658033092,3.2589347313564696,73215744
0,0,0,0,0,0,0,0,0,0,0,0,0.5082041392569707,-0.4938209883953319,-0.8508954347247403,-1.721382513211073,3.2587423633029893,3.2588749359697022,-1.0014023901703821,-1.1199243211656,-0.29127355709952796,-0.5478280243668585,3.2592553447789365,3.259417815139033,73216801
0,0,0,0,0,0,0,0,0,0,0,0,0.4548674410423566,-0.08787404154229658,-0.3630811289645587,-0.982384703443611,3.2588481854019387,3.2586924026837827,-0.8099800479388294,-0.9826411941815846,-0.32993402837920527,-0.2753943413966109,3.2593328427473116,3.259024817827322,73217857
0,0,0,0,0,0,0,0,0,0,0,0,0.5804275250944524,0.2500847637754397,-0.04773088070522317,-0.7962810035086874,3.258841497759997,3.258736069051751,-0.9459822947957867,-1.007656122166648,-0.35473337825934625,-0.04212270285161768,3.2590633701161584,3.2591239522843303,73218914
0,0,0,0,0,0,0,0,0,0,0,0,0.49792011951447956,0.7758463234718231,0.3924178472063359,-0.053922850361210146,3.2590252112180247,3.258922929635397,-0.5724483814774014,-1.3178108594192097,-0.8915932764522166,-0.18064815767385453,3.259245510011376,3.2593080591330597,73219970
0,0,0,0,0,0,0,0,0,0,0,0,-0.1507024706247414,1.2709116066588886,-1.000165176411292,2.3664276083025464,3.2585877607569405,3.2585956285709887,-0.5168374916121353,-1.6100816619493556,-0.9589811037756328,-0.6124750986665605,3.2590539287393003,3.2588147471922335,73221026
0,0,0,0,0,0,0,0,0,0,0,0,0.3526031676057777,0.483430753163189,-0.3130064264543565,0.04931270471962746,3.259003574729392,3.2586621115996968,0.05763016434075407,-0.9699138247864036,-0.6129998818635799,0.08681385359929246,3.259258098513853,3.2593230079797513,73222083
0,0,0,0,0,0,0,0,0,0,0,0,-0.03262507112325085,0.4220858004195452,0.48083083401093885,-0.3386409447957211,3.258879263267429,3.258861954076523,-0.06505698741161674,-1.3011967898841845,-0.7620099856865389,-0.16938931577078292,3.2591652583080837,3.2591294597541642,73223139
0,0,0,0,0,0,0,0,0,0,0,0,-0.0548016851904017,0.7029553536123458,-0.39368731900302395,-0.9926447263532551,3.258883590565156,3.2585248182445543,-0.23218784715984428,-1.2937318079151878,-0.26707216108705534,-0.17603919220437908,3.259316713728513,3.2591097902190436,73224196
0,0,0,0,0,0,0,0,0,0,0,0,0.17461433108023774,-0.2713742818086483,0.03643702702963674,-0.3238809256411702,3.2587962578292196,3.2591444086008554,0.49244294076477774,-1.3941243283896838,1.5551017707707608,-1.9160998959660407,3.2591872881874187,3.2594776105258,73225252
0,0,0,0,0,0,0,0,0,0,0,0,0.27498482167539856,-0.011802507853806954,-0.18023195031070116,-1.0707996572017262,3.2589264701517187,3.258439452462131,1.450033408407379,-1.46063686140023,-0.4238729743806093,-0.7507314742483465,3.259474856790883,3.259176666638454,73226309
0,0,0,0,0,0,0,0,0,0,0,0,-0.12823238709359014,-0.007020057084567199,-0.6881072149404543,-0.6312052167898675,3.2590732048837188,3.259051568395086,-0.033902804124689594,-1.4700050675875027,-0.6589605044079427,-0.4574059912450303,3.2591483425078795,3.259229380992577,73227365
0,0,0,0,0,0,0,0,0,0,0,0,0.30866221292760526,-0.5651616054965979,-1.0744959562416023,-0.933013383509324,3.258969743128984,3.258476431188158,0.051596731137839684,-1.6565414972950812,-0.664558060712583,-0.45523408117700587,3.2591542433684157,3.2590271781715368,73228421
0,0,0,0,0,0,0,0,0,0,0,0,0.33370625182464736,-0.7359053654557901,-1.4879314885057793,-1.4038756971211073,3.2587207268143565,3.258802945471161,-0.14884684668145737,-1.590971135016815,-0.5460986788390493,-0.11284254942447536,3.259385557101435,3.258933551184362,73229416
0,0,0,0,0,0,0,0,0,0,0,0,0.7721586790273998,-0.9679295620834304,-1.3940975778219196,-1.5890340791981312,3.2588021586897558,3.258731741754024,0.0049638038830523345,-0.9589158009190322,-0.20346914571155855,0.2291799818491914,3.259047634488062,3.259092087637435,73230410
