0,0,0,0,0,0,0,0,0,0,0,0,0.12027645352798146,-0.8694874727115002,-1.033424786737536,-1.2166299839770773,3.2588674615463566,3.258756918758978,-0.5629597977351901,1.7471444901400197,-3.241583841035824,-0.33017989756821364,3.2592490505276976,3.2589182089469677,100325635
0,0,0,0,0,0,0,0,0,0,0,0,0.09586774061533695,-0.6954927319875636,-1.546866923197141,-1.3438489966212506,3.258889491425692,3.2587423633029893,0.48432571701117955,-0.6346454184824727,-3.2438135795371026,-0.44129900232541586,3.2590283583436435,3.259117658033092,100326692
0,0,0,0,0,0,0,0,0,0,0,0,0.14048650747376767,-1.385239599375677,-0.7047653442341499,-0.7296862518413366,3.2586341808598256,3.258527178588769,-0.06232410220195081,-1.1451056534177841,-3.2537486617265534,-0.7263581664989193,3.2590385865019065,3.2590928744188394,100327749
0,0,0,0,0,0,0,0,0,0,0,0,0.6853570205398821,-0.9651593047570353,-0.554826444962793,-0.8076755652040917,3.258747083991418,3.25893001066804,0.22430901817190863,-0.2552440828375915,-3.2374559923954003,-0.12882325992861507,3.2594516467394405,3.259438664846261,100328805
0,0,0,0,0,0,0,0,0,0,0,0,0.252077681073866,-0.770202347064298,-0.4243607788516019,-0.9932942144029396,3.2590444873624427,3.2588584135602012,0.794893121110573,-0.10669188579224177,-3.1100332033673763,0.445059817440488,3.25913693417751,3.2589327644029575,100329862
0,0,0,0,0,0,0,0,0,0,0,0,0.33315747179478067,-0.8909441817932345,-1.1831909874905333,0.06630521611037446,3.2589016865374667,3.258800978517649,0.9100440871768101,0.08709276760730357,-3.020510854781968,0.03889729248253017,3.259351725501028,3.2590067218550107,100330919
0,0,0,0,0,0,0,0,0,0,0,0,0.916413869430288,-0.6491442262106211,-1.3136771099182498,2.869307204402352,3.2587997983455415,3.2588717888440835,0.2787460301811731,-0.21425001791119788,-3.161642523007693,0.25462606604410004,3.259622378304288,3.259824974516031,100331975
0,0,0,0,0,0,0,0,0,0,0,0,-0.1404129434124164,-1.2212574388095663,0.6934596888374911,-1.2508624495103895,3.2590814660884693,3.2584961007232787,0.6153141993658781,0.21409344841163733,-3.1130792275761636,0.30381131217614554,3.258965022440555,3.2590617965533486,100333032
0,0,0,0,0,0,0,0,0,0,0,0,0.06030128721014109,-0.3496696531378809,-0.84271920236578,-0.9122946753853173,3.2590519617857883,3.258780522201123,0.29411501814305996,0.7468471344527166,-3.2406829763272973,0.8334914366592688,3.258656604129863,3.259431190422915,100334089
0,0,0,0,0,0,0,0,0,0,0,0,0.35398239540843907,-0.5964263315709032,-0.794334506313146,-0.3924796095466148,3.25870499118626,3.2585956285709887,0.9970467683132611,-1.3320036091808805,-2.1493636666969853,-0.8546468084629545,3.259020097138893,3.259250624090507,100335145
0,0,0,0,0,0,0,0,0,0,0,0,0.569361051244861,-0.7365422650029975,-0.785727511135043,-0.3313270248564511,3.25885172591826,3.258623952701563,-0.8719080057034498,0.14844047408586433,-3.249397367167159,-0.13513285340462367,3.2592156123179925,3.2591239522843303,100336202
0,0,0,0,0,0,0,0,0,0,0,0,0.646007722140279,-0.4455609971953627,-0.9217986013649226,-0.40782342050354725,3.2589587281893166,3.2588072727688875,-0.4623753025979164,-0.6512319506683291,-3.1508805335617702,-0.48506765187593126,3.25952167028447,3.259203023815515,100337259
0,0,0,0,0,0,0,0,0,0,0,0,0.8254717737998692,-0.38198001169920104,-0.8745370357676787,-0.7986027954343313,3.258863921030035,3.258407194424533,-0.2946480625448301,-0.7366882129535928,-3.247980767247768,-0.8036413435508422,3.2590318988599654,3.2592392157601373,100338315
0,0,0,0,0,0,0,0,0,0,0,0,0.5390495108425034,-0.9051145082848677,-0.7358074111708892,-0.7905607093048941,3.2586798141813054,3.2586487363158145,-0.25416225840595463,-0.38167356034202105,-3.198808503008902,-0.4616876556500978,3.2593631338313975,3.2593009781004163,100339372
0,0,0,0,0,0,0,0,0,0,0,0,0.9936360709233368,-0.9284107122910872,-0.4135437147073405,-0.40607479883131964,3.2590433071903355,3.258942205779815,-0.3554324335375349,-0.8586365769668313,-3.251858026010755,-0.603375578329036,3.2593918513526736,3.259201843643408,100340429
0,0,0,0,0,0,0,0,0,0,0,0,0.611727656331975,-0.5259629757360191,-0.6872008427620938,0.760469467695888,3.258695549809402,3.258809633113102,-0.03817738749711364,0.12789053057319288,-3.238674323400774,-0.18218592192958852,3.2590767454000407,3.2591900419223356,100341485
0,0,0,0,0,0,0,0,0,0,0,0,0.9027163985629556,-1.001349675816259,0.038962988729833205,-0.9558229632166579,3.258619625403836,3.258640475111064,-0.00798150396126556,-0.48041856055480964,-3.2468564566202702,0.10957858676655134,3.2591849278432043,3.259364707394207,100342717
0,0,0,0,0,0,0,0,0,0,0,0,-0.35919914951314325,-0.14473394688772523,-0.4464953001135945,-1.8191279076490292,3.2586841414790317,3.2587171862980346,0.3652479249534517,-0.4524201574826428,-3.250827735761134,-0.18693139397280145,3.259195942782872,3.258715612735225,100343948
0,0,0,0,0,0,0,0,0,0,0,0,0.33619484140811456,0.24324448624187542,-1.0309586204241061,-0.39621800139164937,3.2589201759004798,3.2587018440606403,0.47068214067007785,-1.5775199267291935,-3.245469361003561,-0.20973192569397994,3.258822221615579,3.2589331577936598,100345180
0,0,0,0,0,0,0,0,0,0,0,0,0.4168721934404604,-0.7616634084777126,0.23177596709441747,-1.2111087454687053,3.259176273247751,3.258612937761895,-0.3347912233819036,0.7369313284076844,-3.2416597654413892,-0.07929812422968437,3.2593568395801586,3.259531111661328,100346411
0,0,0,0,0,0,0,0,0,0,0,0,-0.18240504055083281,-0.6968955632323698,-0.3158899803030467,-1.2580500910341847,3.258521277728233,3.258669586023043,1.456650633412675,-0.4630531147781747,-3.09341401975322,0.2450985366223498,3.2593611668778855,3.259193189047955,100347642
0,0,0,0,0,0,0,0,0,0,0,0,-0.30708471621092753,-0.6789132808343507,-1.330170408507634,-0.8459709699119293,3.259014589669059,3.258710498656094,0.3799048757439703,-0.3859292609607292,-3.2031086567769833,-0.03755779714081253,3.259388310836352,3.259023637655215,100348874
0,0,0,0,0,0,0,0,0,0,0,0,0.10418362667365393,-0.9142840521674218,-0.877992579697678,-0.19816859938724032,3.2590098689806304,3.258846611839129,0.7552342242281703,0.627413717200007,-3.1777986857651093,0.6795088743578045,3.2592329215088984,3.2595000337958373,100350105
0,0,0,0,0,0,0,0,0,0,0,0,-0.03650665718396392,-0.8050367003723026,-1.136205975557086,-0.3258246691017948,3.258715612735225,3.2585956285709887,0.9700243675737819,0.549281603012276,-3.0284239087610136,0.2724714484776793,3.259149522679987,3.2589898060548075,100351336
0,0,0,0,0,0,0,0,0,0,0,0,0.6016096474659022,-1.1882071123370066,-1.1481670198639655,-1.2250961452837164,3.258930404058743,3.2587431500843937,0.773234995989203,0.5559865541442102,-2.852626258447916,0.27172675987801076,3.25920381059692,3.2586428354552783,100352568
0,0,0,0,0,0,0,0,0,0,0,0,0.018862690790020318,-1.2015910508145153,-1.0992748498052178,0.38547607487154895,3.258664471943911,3.2585031817559216,0.8016968133088128,0.8745842426519683,-3.039763789148782,-0.07763998241901188,3.258972103473199,3.258922142853992,100353799
0,0,0,0,0,0,0,0,0,0,0,0,-0.46235051898366436,-0.08904201853776199,-1.2530418340017597,0.49699250423818875,3.2588576267787963,3.258762426228812,0.19976733920184842,0.774720439281516,-3.2207687521897257,0.6912862052066571,3.259166438480191,3.2589268635424213,100355031
0,0,0,0,0,0,0,0,0,0,0,0,0.8672534069124945,-0.48235679654560043,-0.39871367200776003,-0.08621589973162408,3.258892638551311,3.2590224574831073,0.2486083684692822,0.31759532899800885,-3.248097604286385,0.4466196115755572,3.259645981746433,3.259376902505982,100356262
0,0,0,0,0,0,0,0,0,0,0,0,0.4607840372066542,-0.7899269568833062,-0.03576039502148568,-0.6560462660844643,3.258585400412726,3.258898146021145,-1.2501165807386136,0.4962045426612547,-3.0525895062195665,-1.4681431493929802,3.259430010250808,3.25913693417751,100357493
0,0,0,0,0,0,0,0,0,0,0,0,0.5727367368622704,-0.49067464955742945,-0.3502656400520372,-0.5122218385007189,3.2589288304959334,3.258810026503804,1.200270831617216,-3.023249247461467,-2.3282419596006823,-0.4979130384818361,3.2590098689806304,3.2592785548303786,100358725
0,0,0,0,0,0,0,0,0,0,0,0,0.6921020975234625,-0.6180400035429006,-0.4226322201051974,-0.16015761615724755,3.2587813089825284,3.2587466906007156,-0.8165728827205757,-0.5993421434571914,-3.198907244075208,-0.2861366613074137,3.2594504665673334,3.259372968598958,100359956
0,0,0,0,0,0,0,0,0,0,0,0,0.8161598224830415,-0.8478907165397068,-0.8667903860557539,-1.0775156232733276,3.2590814660884693,3.2588186810992577,-0.6592032264713319,-1.1241697936260453,-3.2542093222390793,-0.7125485792813991,3.259285635863022,3.2591314267076763,100361187
0,0,0,0,0,0,0,0,0,0,0,0,0.8093809138990538,-0.40193200134420404,-0.9481593189429425,-0.6312087573061891,3.25894456612403,3.2589827250221637,-0.4216959502334535,-1.1960890884505615,-3.2517742337911404,0.4147730606523824,3.259236068634518,3.259174699684942,100362007
0,0,0,0,0,0,0,0,0,0,0,0,1.1154636639909343,-0.2960111613286926,0.15727996316909348,-0.2238676338038008,3.2587073515304743,3.2580566833086824,0.7127484217582251,-0.05213646318155088,-3.244802170372268,0.573127373829767,3.2590472410973597,3.259179026982668,100362826
0,0,0,0,0,0,0,0,0,0,0,0,0.7013998867750033,-0.41690484486876067,-0.6195797347521466,0.3093553673452577,3.2587313483633213,3.258702237451343,0.15910765637250618,-1.190186654351551,-3.253420967271443,-0.338119308724321,3.2591821741082874,3.259163684745274,100363646
0,0,0,0,0,0,0,0,0,0,0,0,0.21202775383326458,-1.1567429371765778,-0.23366424246600181,-1.2712420548489158,3.2589854787570807,3.2587514112891447,0.06724502649844008,-0.8376283332858482,-3.2513088525901854,-0.648152488249837,3.2594154547948184,3.259316713728513,100364465
0,0,0,0,0,0,0,0,0,0,0,0,0.5586313198365354,0.39631280855093104,-0.9738072125681893,-0.7575886675821146,3.258948500031054,3.258513016523482,0.25928735247699647,-0.46278757605404564,-3.251590913723816,-0.5227544811671353,3.2591149042981744,3.2593635272221,100365285
0,0,0,0,0,0,0,0,0,0,0,0,0.0472359952015871,-0.4347254436880879,-1.0935352794570063,-1.2139749901264894,3.2589587281893166,3.258751017898442,0.30712169493695435,-0.5888712631310538,-3.194723140564339,-0.8468824561694211,3.2591975163456812,3.259027571562239,100366104
0,0,0,0,0,0,0,0,0,0,0,0,0.4498485624609664,-0.8709984863994701,-1.0088394413995077,-0.855682606182409,3.258575959035868,3.2591192315959012,2.3458096081983575,-1.4453316027321341,-3.252083045492535,-0.23349115055693992,3.2593934249154835,3.2590916942467323,100366924
0,0,0,0,0,0,0,0,0,0,0,0,0.38601344657104564,-0.9184217355754061,-1.3438344411652614,-0.6864353044551974,3.2588611672951178,3.25845400791812,1.6790127609983396,-0.7454218799378728,-3.0835446338110724,-0.35397767472001007,3.259096021544459,3.2590393732833114,100367743
0,0,0,0,0,0,0,0,0,0,0,0,-0.1415144373791739,-0.8544760768981071,-0.6123779311630644,-0.4791058157808561,3.258871395453381,3.258518523993316,0.5380978987333653,-0.22784678075871237,-2.993710719789352,-0.15771780702087962,3.2588328431645444,3.259144801991558,100368563
0,0,0,0,0,0,0,0,0,0,0,0,0.2524966421719363,-0.9088560472555216,-0.5793669437607459,-0.8907128680602154,3.2584107349408544,3.2584016869546994,0.8801109886301741,0.2645068603166175,-3.1320532479349668,-0.33984786747072543,3.259559435791902,3.2590700577580995,100369382
0,0,0,0,0,0,0,0,0,0,0,0,-0.32477392253564863,-0.5961997385263131,-0.9187439225606825,-0.5516207041288261,3.258566911049713,3.258620412185241,0.17998136043326382,-0.4215787198041343,-3.22314601220441,-0.3306850112301124,3.2592482637462927,3.2589858721477833,100370202
0,0,0,0,0,0,0,0,0,0,0,0,-0.3271271857174856,-0.9461431915930737,-0.9644850330930987,-0.8015540124838366,3.259119624986604,3.2590724181023143,0.4946852677685341,0.4216042901997912,-2.915922035684828,0.17693848335009613,3.2593230079797513,3.2592765878768666,100371021
0,0,0,0,0,0,0,0,0,0,0,0,0.24878342733185616,-1.1388133691326818,-0.7720434155515927,-0.6239326028743508,3.258854086262475,3.2585987756966084,0.3987652061897762,0.30114884390221164,-3.107565463491137,0.4261223824170091,3.259380443022304,3.2591888617502285,100371841
0,0,0,0,0,0,0,0,0,0,0,0,1.65346872251853,-1.3182530305687226,-0.39281910572279755,0.4649103122842684,3.258858020169499,3.2586876819953536,0.35518577756712166,0.34373456761056986,-2.9827697375738307,-0.25061190731667365,3.2591605376196546,3.259046060925252,100372660
0,0,0,0,0,0,0,0,0,0,0,0,0.1119605674696645,-0.2693341576259324,-0.2061449892693745,-0.8382514641584711,3.259049601441574,3.259225447085553,0.770279451641971,0.6057984716652002,-3.1445158653874232,0.9423981121060981,3.259274227532652,3.259219152834314,100373480
0,0,0,0,0,0,0,0,0,0,0,0,0.5565522499742805,-0.5259979875085339,-0.7499368250294715,-0.7595465731080261,3.2588104198945067,3.2587781618569087,0.5946375840470295,0.872723504629553,-3.228534678046069,0.32006700278127226,3.2592746209233545,3.2591518830242014,100374299
0,0,0,0,0,0,0,0,0,0,0,0,0.3864544375484511,-0.6931363216801072,-0.5502776682707867,-0.43552324003258225,3.258561010189177,3.258382410810281,0.3328577080795417,-0.4886475072678932,-1.939522771778437,-1.7661086757312625,3.259206564331837,3.259170372387215,100375356
0,0,0,0,0,0,0,0,0,0,0,0,0.7808711029137495,-0.6740293352638882,-0.7589871715291943,-0.7996381997630834,3.258555502719343,3.2587809155918257,0.0676887712107624,-0.27547183936498637,-3.0747322886863095,-0.45274470481213386,3.259230561164684,3.25901144254344,100376413
0,0,0,0,0,0,0,0,0,0,0,0,0.549574679085574,-0.28240889101134425,-0.8433600358200115,-0.48833397487806973,3.2586924026837827,3.258387918280115,-0.6191092394720601,0.01514632882432089,-3.2479056296236073,-0.6880320773162933,3.2589178155562655,3.2592557381696388,100377469
0,0,0,0,0,0,0,0,0,0,0,0,0.24301120555534428,-0.41993041276102216,-0.856984336016695,-0.2758168430110029,3.2592289876018743,3.2587120722189034,-0.31711499895036205,-0.244822769739958,-3.211370648309069,-0.2678538284127508,3.25935369245454,3.2591294597541642,100378526
0,0,0,0,0,0,0,0,0,0,0,0,0.40781830642441586,-0.15697823250034243,-1.0627504900396454,-0.030857960088009843,3.2588548730438793,3.2587557385868715,0.1411092449556881,-0.4395401524949255,-3.2483568487592756,0.03375842973690388,3.2594343375485346,3.2593359898729313,100379583
0,0,0,0,0,0,0,0,0,0,0,0,0.700958109016193,-0.4328662792284821,-1.1302858388764665,-1.1896178113958609,3.258714432563118,3.258880050048834,-0.09114783896778093,-0.16632873610600662,-3.2428603938651555,0.14777131650105912,3.25905864942773,3.25877344116848,100380639
0,0,0,0,0,0,0,0,0,0,0,0,0.6443334513108075,-0.37353666705330213,-1.6902696359478993,0.49776473018702627,3.2589673827847694,3.2588682483277616,0.6124463811452843,-0.29664412696887577,-3.133152774948212,0.2723695602857542,3.2594382714555588,3.259549207633639,100381696
0,0,0,0,0,0,0,0,0,0,0,0,1.5431340388219403,-2.335258082778225,2.5969171878000723,-2.9193870209916852,3.258411128331557,3.2586569975205655,0.7313506879032479,-0.42422623923137653,-3.24326873341426,0.4194111370338365,3.259313566602893,3.2594335507671297,100382752
0,0,0,0,0,0,0,0,0,0,0,0,0.4336373250052124,-0.07462857659203727,-0.4892379867122157,-0.15076069244869858,3.2586436222366837,3.258585007022024,0.934276167664071,-0.18150181549809163,-2.8812312699832043,0.7298782265041144,3.2591573904940354,3.2588383506343783,100383809
0,0,0,0,0,0,0,0,0,0,0,0,0.4628422573616811,-0.5529063049443131,-0.05777453872853979,-0.349753445357495,3.258904833663086,3.259035045985585,0.7019958736891596,-1.5070884355412049,0.03956763023944261,-2.229207030440215,3.2590377997205016,3.259145588772963,100384866
0,0,0,0,0,0,0,0,0,0,0,0,0.2983514426173499,-1.1547193354033631,0.2229872254117996,-0.6815906979549763,3.258666832288126,3.2587663601358363,-0.21319612421943238,0.6646406727600899,-3.2251637131170883,-0.28170078774700014,3.2590157698411666,3.2591920088758477,100385922
0,0,0,0,0,0,0,0,0,0,0,0,0.16094951164120574,-0.7521000805020428,-0.17107814205624364,-1.0405907917726982,3.259110183609746,3.2584866593464206,0.2077728399959612,-0.0281683478556094,-3.0541760509223996,0.1608696533286158,3.259324188151859,3.2591137241260677,100386979
0,0,0,0,0,0,0,0,0,0,0,0,-0.060886259184629817,-0.5705793822502354,-0.6782700870359046,-1.1773762795181608,3.258896572458335,3.2590987752793756,0.36925303569472256,0.257940382711933,-3.1029950503104984,0.5045719629015878,3.2592148255365876,3.259094054590947,100388036
0,0,0,0,0,0,0,0,0,0,0,0,-0.02194333338061969,-0.6144927995792387,-0.6939533941690199,-0.9647387700961554,3.2590433071903355,3.2590138028876545,0.7214950706356847,0.09804122424617102,-3.059989578722665,-0.19162533183399816,3.2589756439895203,3.2593662809570167,100389092
0,0,0,0,0,0,0,0,0,0,0,0,0.01408653427201918,-0.9960589642595009,-0.6924046149736183,-0.7607239914803494,3.258912701477134,3.2586172650596215,0.5823814967133399,-0.4976549741810529,-3.16068028934959,-0.62339129726783,3.259437484674154,3.259343070905574,100390149
0,0,0,0,0,0,0,0,0,0,0,0,0.26819765188666006,-0.9687116227998284,-0.7195953869337304,-1.001261162908216,3.2589988540409625,3.2588961790676327,0.2209478880104885,-0.4764036150459784,-3.1379906938064925,-0.6768243762045354,3.2593296956216924,3.2591054629213168,100391205
0,0,0,0,0,0,0,0,0,0,0,0,0.7905048478251514,-2.182288108144773,2.1384435341886916,-2.915166332145492,3.258758098931086,3.258634574250528,0.06715100612056328,-0.2573731133190528,-2.9892221318748153,-0.17676853856665353,3.258912701477134,3.2590008209944745,100392432
0,0,0,0,0,0,0,0,0,0,0,0,-0.9466923650136428,1.5649994808434822,-1.9919259538562242,-0.27417679717264143,3.258817107536448,3.258557469672855,0.27453714305605204,0.03982058046109443,-3.0175191184901142,0.09051920062532433,3.259287602816534,3.2592474769648883,100393659
0,0,0,0,0,0,0,0,0,0,0,0,1.173779508325995,-0.9640841679673394,-1.113872398599672,-0.04479815301873124,3.2585134099141846,3.2590342592041797,0.20700061404712367,0.4959692950212115,-2.4812599278998286,0.1932748190492176,3.259112150563258,3.2589874457105927,100394886
0,0,0,0,0,0,0,0,0,0,0,0,0.9591313790239546,-0.560391349839133,-0.33381364748640624,0.23725275245341687,3.258760065884598,3.2586058567292517,-0.3871806367851062,0.3603049707776273,-3.2430118492855846,0.6160305638349728,3.2589245031982066,3.258889491425692,100396112
0,0,0,0,0,0,0,0,0,0,0,0,0.6813243724494423,-0.20877244577079365,-0.3346079033145789,-0.14482757387489958,3.259024031045917,3.258747083991418,0.7784714196290278,0.26572912522901593,-3.0013271571787783,-0.35194777869555693,3.2591904353130383,3.259459514553489,100397339
0,0,0,0,0,0,0,0,0,0,0,0,0.7998722672310193,-0.2991563199944877,0.3274898919451108,0.22376377865836364,3.259007508636416,3.2585897277104525,0.9154323596277666,0.6667012532593314,-2.7706806147909893,0.409384788201426,3.25929507723988,3.2592510174812097,100398566
0,0,0,0,0,0,0,0,0,0,0,0,0.7060749418824841,-0.060387439773969626,-0.11320958294982707,-0.2569993921517601,3.258787603233767,3.2586121509804906,-0.05655581433246307,0.3329934278718743,-3.1905024517181455,-0.48207394863056524,3.2591841410617994,3.2590138028876545,100399792
0,0,0,0,0,0,0,0,0,0,0,0,0.8060418136169688,-0.6132256881267653,-0.5323307910359849,-0.886358032984499,3.258934337965767,3.258927650323826,-0.6546398943233364,-0.08945861929161777,-3.250033479932961,-0.8366102381480024,3.2590909074653274,3.2591330002704857,100401019
0,0,0,0,0,0,0,0,0,0,0,0,0.9958418125917687,-1.1349789899562583,-0.14429728320804633,-0.8093049894934881,3.2588348101180564,3.25846541624849,-0.9916093220245029,-1.0877791866992934,-3.2536987011073473,-0.6840466361101432,3.258725054112083,3.258614511324705,100402246
0,0,0,0,0,0,0,0,0,0,0,0,0.35594934892050606,-0.6138480322179832,0.05308571494647442,-1.3657486636339025,3.2586927960744854,3.2585625837519863,-0.4090637813882567,-0.31635693506681145,-3.245480769333931,-0.5112403286981975,3.259262819202282,3.2590031813386893,100403472
0,0,0,0,0,0,0,0,0,0,0,0,-0.0682725630131439,-0.3543722455945308,-0.32825031617287587,-0.9558438129238859,3.2589528273287804,3.259149129289285,-0.23637981848476153,-1.023169877907023,-3.2503179014108063,-0.8490382372186466,3.2592317413367917,3.259117658033092,100404699
0,0,0,0,0,0,0,0,0,0,0,0,0.8291102444064908,-0.7499140083687315,-0.7347354215068127,-0.45686507902921186,3.2588218282248764,3.2587140391724154,-0.4401137161390443,-0.7123605385256455,-3.2533399287867457,-0.47581706950868,3.259212071801671,3.2591837476710968,100405926
0,0,0,0,0,0,0,0,0,0,0,0,0.8577113220347549,-0.9877033457402402,-0.6355089110742701,-0.9791962718005504,3.2589414189984103,3.2586357544226354,0.04213961865182145,-1.0033846859198432,-2.785707352841777,-0.3686845861297352,3.259298617756202,3.259586186359666,100407152
0,0,0,0,0,0,0,0,0,0,0,0,0.11877252087265502,-0.8676719746198623,-0.9799008345485728,-0.5428724816885568,3.2586943696372948,3.2587372492238575,0.8364784522626939,-0.30722909059871323,-3.2237235097555526,0.7775375101014983,3.259493739544599,3.2592112850202657,100408379
0,0,0,0,0,0,0,0,0,0,0,0,0.3209348226707962,-0.9228831795314765,-1.0488732396213103,-1.2387515233458903,3.2589123080864315,3.2589414189984103,0.496571182795904,0.2913809527612868,-2.7171700378859085,-0.08050032621625974,3.2592156123179925,3.2590212773110006,100409606
0,0,0,0,0,0,0,0,0,0,0,0,0.3210378910348285,-1.222765305371917,-0.8083588848541837,-0.3931235901264655,3.2591432284287487,3.2589473198589465,0.35770662518818674,0.07465768750401586,-2.8027572992750764,-0.30161776561948844,3.2594520401301432,3.259468955930347,100410832
0,0,0,0,0,0,0,0,0,0,0,0,0.5448992305873908,-0.825881686911784,-1.112910164941569,-0.8872738465397174,3.2585326860586026,3.258629066780694,0.6648531037393931,0.55257979066131,-2.8170216461445863,-0.13457738573281597,3.25900160777588,3.259335203091526,100411866
0,0,0,0,0,0,0,0,0,0,0,0,0.3746680587134431,-0.4191487454353267,-1.1661941488020597,0.2631618575050661,3.2585401604819486,3.258658571083375,1.043245392232584,0.6752881855116111,-2.6410733271924647,0.497445690327369,3.25944181197188,3.258823008396984,100412900
0,0,0,0,0,0,0,0,0,0,0,0,0.7504627883985981,-0.6638165192385338,-1.1455332691113078,0.25893172728201475,3.258998067259558,3.258904046881681,0.7457452470952567,0.6666166742583125,-2.690506016076328,0.6612075521001282,3.259134180442593,3.2591943692200624,100413934
0,0,0,0,0,0,0,0,0,0,0,0,0.2680941901319253,-0.8203498268544467,-0.27376570388861937,-0.1358260078222761,3.2587132523910105,3.258406014252426,0.6317189850472194,-0.3653612214757468,-2.686369512840451,-0.1167441984110115,3.2592726539698424,3.2591837476710968,100414968
0,0,0,0,0,0,0,0,0,0,0,0,0.8374261304648077,-0.9304512298645055,-1.3803859448893003,1.3945299142038718,3.2589756439895203,3.2589854787570807,-0.49283161077876214,0.07898970591899226,-3.2490629850701076,0.4268576296398198,3.259387130664245,3.2593127798214887,100416002
0,0,0,0,0,0,0,0,0,0,0,0,0.3376893326865831,-0.9677041492109476,-0.4671365102692258,-0.8150980609772278,3.2590822528698746,3.258789570187279,0.023778107616675807,-0.9145869630082801,-2.968505784095023,-0.03388116763605686,3.2594599079441915,3.2591278861913544,100417036
0,0,0,0,0,0,0,0,0,0,0,0,0.19641722398009584,-0.635125355139417,-0.9389406012225867,-1.0661741693227493,3.258962662096341,3.2586986969350216,0.1257595331382195,-0.07419269969376323,-3.090734635679082,-0.07675052604085518,3.258986658929188,3.2589772175523297,100418070
0,0,0,0,0,0,0,0,0,0,0,0,0.8653285462055857,-0.7174337050239687,-1.4339645783858987,-0.9912438620619608,3.259058256037027,3.258629066780694,1.3789244984298346,-2.0959089512716473,-0.751272386464165,-0.3488879858121855,3.2595000337958373,3.2593336295287165,100419103
0,0,0,0,0,0,0,0,0,0,0,0,0.43018217446591545,-0.33208036805157276,-1.105948329680959,-0.623193421744516,3.258784062717445,3.2588989328025497,0.06595863890154825,0.3626023724797216,-2.940732007113934,-0.11067654021698715,3.259123558893628,3.259083039651279,100420137
0,0,0,0,0,0,0,0,0,0,0,0,0.1021934631101445,-0.19553366846247533,-0.5358492774783704,-0.6644616799904918,3.2588902782070965,3.258644015627386,-0.23692387782619925,-0.141405074763903,-3.039416818549254,-0.273395129846946,3.2592832755188077,3.2589201759004798,100421171
0,0,0,0,0,0,0,0,0,0,0,0,0.16185942433588793,-0.28275743517368257,-0.25379955217832945,-1.5674215873982413,3.258690042339568,3.2587431500843937,-0.928983489153801,-0.6156249780207846,-3.247895794856047,-0.650956970567342,3.2592974375840944,3.259003574729392,100422205
0,0,0,0,0,0,0,0,0,0,0,0,0.4191542529051605,-0.988213180090568,0.4818036892180072,-1.1760631413535048,3.2586141179340027,3.2591239522843303,-0.6486418662836392,-1.4407198835277417,-3.250767153592962,-0.8704941595189761,3.25887611614181,3.2593230079797513,100423239
0,0,0,0,0,0,0,0,0,0,0,0,0.04732018081190357,-0.27316145576971246,0.11050384169862766,-0.4403060841925244,3.2592364620252203,3.258881230220941,-0.256163830299834,-0.9572844096761237,-3.249767941208832,-0.6838204364562555,3.2595598291826042,3.2590893339025175,100424273
0,0,0,0,0,0,0,0,0,0,0,0,0.3281720314230956,0.16125242248206406,-0.8815087057958491,-0.44869946821921686,3.2587038110141524,3.2586656521160187,-0.30543955629343467,-1.1137681500635324,-3.2507006705642545,-0.650616294219052,3.2589835118035686,3.259083039651279,100425307
0,0,0,0,0,0,0,0,0,0,0,0,-0.640665476401505,-0.6626670316060819,-1.19777752134532,-0.4407234717277851,3.2588647078114397,3.2587750147312895,-0.5292894875156269,-0.577159235138802,-3.2485338745753616,-0.8337333719412532,3.259127492800652,3.2591892551409307,100426341
0,0,0,0,0,0,0,0,0,0,0,0,0.4717041697149479,-0.5851391655372579,-0.6444998555779284,-0.5926497808277346,3.259252591044019,3.2587415765215844,0.29675821027257565,-0.5644774990651009,-3.2049332028547766,0.19499747693508587,3.259288389597939,3.259059042818432,100427374
0,0,0,0,0,0,0,0,0,0,0,0,0.3030579689810239,-0.9113332285086189,-0.5472430523923697,-0.39932264081509594,3.2586632917718044,3.258620412185241,2.5873125538006487,-1.2459257895858036,-1.4143406765867086,-0.6375596568059512,3.258970529910389,3.259292323504963,100428222
0,0,0,0,0,0,0,0,0,0,0,0,0.6389141009943605,-1.2015733482329067,-0.4351086062322385,-0.32136479870853407,3.258710892046796,3.258601529431525,-0.22126024022820476,0.5151368636056023,-2.8035204772377584,0.027165201564455215,3.258833629945949,3.2588623474672254,100429069
0,0,0,0,0,0,0,0,0,0,0,0,0.3390583323309817,-1.324142876165256,-0.9822788813446619,-0.47644295411621973,3.259155030149821,3.2591188382051985,0.9235354213160778,0.8355264467628535,-2.5003814697720372,0.5922929754606456,3.2591522764149037,3.2592962574119873,100429916
0,0,0,0,0,0,0,0,0,0,0,0,0.26214454914862506,-1.165890844570499,-1.3185154221672322,-0.2620119764819117,3.2589551876729947,3.258455974871632,1.1104506862700805,0.6135171906372535,-2.517612769319149,0.45854564410992193,3.2593993257760197,3.2594284366879984,100430763
0,0,0,0,0,0,0,0,0,0,0,0,0.10933468453105503,-1.3946113460792715,-1.5747563570447394,-0.7679954252237589,3.2588529060903673,3.2586798141813054,0.5016943099134337,-0.0858669621785834,-3.1214580561468668,-0.253651637274222,3.259494132935301,3.259031505469263,100431610
0,0,0,0,0,0,0,0,0,0,0,0,0.36569245644717885,-1.182259044916516,-1.2884485707817757,-0.8705543482964454,3.2590617965533486,3.2588501523554507,0.018331613341762223,-0.43997012853266343,-3.2193175338885225,-0.6134219900872696,3.259265572937199,3.259038193111204,100432458
0,0,0,0,0,0,0,0,0,0,0,0,0.7924072852620226,-0.5373193785332893,-0.35176917931666124,0.5160920162310619,3.2587883900151713,3.2585145900862917,0.0046604996514916005,0.24973857995731588,-2.612316466846045,0.007123912230004338,3.259261639030175,3.2594252895623788,100433305
0,0,0,0,0,0,0,0,0,0,0,0,-0.235559992260932,-0.24399428892067537,0.6856355411571909,-2.0891257153899327,3.258865101202142,3.2585857938034284,0.7170481821356036,0.4251967340942304,-2.782747087806116,0.7512987436412266,3.259021670701703,3.259110183609746,100434152
0,0,0,0,0,0,0,0,0,0,0,0,-0.6760938496701537,0.13195425652912335,-1.6471489008842588,-1.7538903539050046,3.258441419415643,3.2586302469528015,0.5178559801406837,0.284958849544388,-2.4867457612449835,0.18990188716672504,3.2591392945217246,3.258922142853992,100434999
0,0,0,0,0,0,0,0,0,0,0,0,0.13362105293524895,-0.5998779415938784,-0.5919916381825969,-0.6635246233373431,3.258721513595761,3.25859248144537,0.76152768868538,0.5329130092755567,-3.0926933279863986,2.3977446553402726,3.2589205692911825,3.2590098689806304,100435846
0,0,0,0,0,0,0,0,0,0,0,0,0.8585976312872924,-0.7671606501532375,-0.3407149005788446,-0.729845575075814,3.258561010189177,3.258799404954839,-0.08439843468647416,0.7167755623788312,0.26802613354040783,-1.5442437939934484,3.259058256037027,3.2589795778965445,100436694
0,0,0,0,0,0,0,0,0,0,0,0,0.6340022246840268,-0.37205279732379876,-0.06650073128947392,-0.09002313494958102,3.2585960219616914,3.2584858725650157,0.04866597040485982,0.8928792706584061,-2.9844577770778864,-0.08638309078014979,3.2595960211272264,3.2591754864663462,100437541
0,0,0,0,0,0,0,0,0,0,0,0,0.5823346832197527,-0.48715773667785367,-0.6422358920855393,-0.6275624188855193,3.258856053215987,3.258971710082496,0.37447608405066535,-0.44200513863624796,-3.01291526709977,0.576395270394715,3.2593029450539284,3.2592604588580674,100438388
0,0,0,0,0,0,0,0,0,0,0,0,0.1892905580151746,-0.8108010543347661,-0.4043702369177624,-0.3067247637182193,3.258809633113102,3.258548028295997,0.07154872078284273,-0.9769208999777913,-2.634286550794428,-0.17586216638829305,3.259171552559322,3.258989019273402,100439235
0,0,0,0,0,0,0,0,0,0,0,0,0.7661460955317134,-0.8428037813667989,0.19194515847506027,-0.7547790711854782,3.2585543225472353,3.2589256833703137,-0.2268652709561909,0.02650233823088863,-2.976687523923817,-0.5860136730687228,3.2593949984782933,3.259470922883859,100440082
0,0,0,0,0,0,0,0,0,0,0,0,0.5128445759826392,-0.21232712415780114,-0.9558552212542559,-2.0997622132017866,3.259114510907472,3.2590834330419813,-1.3695543252890499,-1.192990349887651,-3.226797071313509,-1.2715622748806803,3.259355659408052,3.2592400025415422,100440929
0,0,0,0,0,0,0,0,0,0,0,0,0.23591089676748472,-0.35258743197768116,0.3257743150918859,-1.6212936903588402,3.258476431188158,3.2586208055759434,-1.0584609578205297,-0.4175979992864131,-3.018896379339263,-0.5537159030098799,3.2591542433684157,3.2591546367591184,100442150
0,0,0,0,0,0,0,0,0,0,0,0,0.37014563919849863,-0.007941771500321805,-1.5123335137764828,0.26073385008977057,3.2587687204800506,3.2586243460922653,0.356104344857257,-0.07661598642062979,-3.016300394094037,0.14842395167636294,3.2595000337958373,3.2592203330064216,100443371
0,0,0,0,0,0,0,0,0,0,0,0,0.3196846270185264,-0.49093035351399816,0.313755835742454,-0.47171125074759135,3.2586160848875148,3.2587407897401794,0.37397647785860033,-0.9454008633376196,-3.248787611578418,0.15859349472445186,3.259184534452502,3.259389097617757,100444592
0,0,0,0,0,0,0,0,0,0,0,0,0.41753741711824144,-0.3503844440441661,-0.10901485788999293,-0.4407392073558816,3.258717579688737,3.2586377213761475,0.5457174832484106,-1.6118039264445216,-0.9199535989706037,-2.110993124364987,3.2591597508382497,3.259144801991558,100445813
0,0,0,0,0,0,0,0,0,0,0,0,0.29472123321547905,-0.587403129029647,-0.7946519726099935,-0.8738269655498225,3.2590283583436435,3.2585791061614877,-0.0783834908465732,0.45786311124123463,-3.2327494660317257,0.3720779743287533,3.2592954706305823,3.2591184448144963,100447034
0,0,0,0,0,0,0,0,0,0,0,0,-0.19559267706783734,-0.9452844196897053,-1.1659148414033462,-1.1016749264806422,3.2587494443356326,3.258747083991418,1.7187507294119273,0.3464772875877961,-2.027342918794503,0.8913843859892351,3.2591817807175847,3.2594001125574246,100448255
0,0,0,0,0,0,0,0,0,0,0,0,-0.3032519105973137,-0.557558543391054,-0.7264281900439489,-0.8958643193083189,3.2589693497382815,3.2587502311170375,1.7914044846778492,0.5857768518658699,-2.00154238957672,0.22748761504740894,3.2593887042270544,3.258968562956877,100449476
0,0,0,0,0,0,0,0,0,0,0,0,-0.0459181363485022,-1.3465209062720425,-1.0576859781367753,-0.3230673936685793,3.2588529060903673,3.2587883900151713,0.6634168342848819,0.023575511404932904,-2.7970779177043337,-0.30890336142818464,3.2594237159995694,3.259060222990539,100450696
0,0,0,0,0,0,0,0,0,0,0,0,0.6453047329550663,-1.0166065474279578,-0.4635499672353229,-0.13923709860290273,3.2586621115996968,3.2585173438212087,0.5613657786090109,-0.2540462081487427,-2.5298991477369244,0.09862383587644527,3.2588922451606086,3.258880050048834,100451917
0,0,0,0,0,0,0,0,0,0,0,0,1.4136306063688524,-1.2190253399640727,-0.4212962652798015,-1.386104665530284,3.2585429142168656,3.2583894918429244,0.3308608568740912,0.7653687555037445,-2.4402745175688882,0.547167127986804,3.259250230699805,3.2589957069153437,100453138
0,0,0,0,0,0,0,0,0,0,0,0,-0.7409297515070142,0.9727328625598981,-2.623949816697814,0.7659080941567533,3.2588607739044155,3.258990986226914,0.7457334453741843,-0.20817252494961322,-2.5866689666115006,0.0075617560817904566,3.2593584131429685,3.2594115208877943,100454359
0,0,0,0,0,0,0,0,0,0,0,0,-0.7116937412850548,-1.1810521222415116,-0.04661719162669082,-0.8620555355615062,3.258774621340587,3.258529145542281,0.8465158160347719,-0.46370850368839545,-2.1933927408924987,-0.051187998198032165,3.2591983031270866,3.258876509532512,100455580
0,0,0,0,0,0,0,0,0,0,0,0,0.35507405460763625,-0.4248430758527607,-0.7679360232276944,-0.5643649893242108,3.2587891767965766,3.258883197174453,0.09810692049347405,0.04109005225778249,-1.8907682884655341,-0.40958935136668095,3.2592805217838907,3.259175093075644,100456801
0,0,0,0,0,0,0,0,0,0,0,0,0.7873679503641069,-0.3100319993534087,-0.07095863472922262,0.22797817325331843,3.258989412664105,3.258701057279236,-0.6574227401522088,0.424374154135484,-2.1842987280248076,-0.2925217857982857,3.2594280432972957,3.2596133303181327,100458022
0,0,0,0,0,0,0,0,0,0,0,0,0.8791137431995562,-0.21345104139459625,-0.28558040685420116,-0.4741160481114445,3.25898705231989,3.258813960410828,0.09523320141234413,0.18791683768234702,-2.7809595204543496,-0.28795648669677815,3.2593108128679766,3.25921521892729,100459243
0,0,0,0,0,0,0,0,0,0,0,0,0.7323624887898551,-0.4527985993383645,-0.21505725563255018,-0.685657571036526,3.2589016865374667,3.258721513595761,0.05778830740312426,-0.46994768022867206,-2.623022988202928,-0.58994482635794,3.259341103952062,3.2591208051587106,100460463
0,0,0,0,0,0,0,0,0,0,0,0,0.5790290211473728,-0.5375624939873808,-0.029142383234784987,-0.32110476745423877,3.258365495010077,3.2587282012377026,-0.4943516724528876,-0.23306589520763102,-2.7881156907219515,0.1939888231740979,3.25896580922196,3.25910113562359,100461497
0,0,0,0,0,0,0,0,0,0,0,0,0.29249385505841435,-0.4408501435339621,-0.45687019310834326,-0.18651164609332632,3.2585401604819486,3.258495707332576,0.48576592037271504,0.04589689325057188,-2.443510549486941,-0.21750689953647845,3.2591739129035364,3.2591668318708935,100462531
0,0,0,0,0,0,0,0,0,0,0,0,0.3531755510777892,-0.43792764400573303,-0.7662145455139333,-0.6014200331473389,3.2588654945928446,3.258856446606689,0.2978534099880945,-0.6829325536409084,-2.56896363126798,0.2890603410077502,3.2593363832636335,3.2594115208877943,100463565
0,0,0,0,0,0,0,0,0,0,0,0,-0.2578310200966621,0.17126106873286587,-1.4706785524700345,-0.8796522950711602,3.2584901998627425,3.2586467693623025,0.6606273008140684,-0.40927345863264303,-2.9505793631767467,-0.389801012253882,3.2590928744188394,3.259275014314057,100464599
0,0,0,0,0,0,0,0,0,0,0,0,1.3507443488531528,-0.7801433301142847,-1.3481424627473904,1.806951285237227,3.2588198612713644,3.25898705231989,0.22047975307461656,0.07198302411830712,-3.1856244070082194,0.8708887303934968,3.2590547155207057,3.2592309545553864,100465633
0,0,0,0,0,0,0,0,0,0,0,0,-0.6863062723048058,0.11315411486078676,-0.2879057392961668,-0.9812509514392556,3.2591211985494133,3.2585948417895843,0.4167191644572215,0.2641362862749441,-3.1212121869578584,1.5410510350526614,3.259504361093564,3.259315140165703,100466666
0,0,0,0,0,0,0,0,0,0,0,0,0.769152780670259,-0.6501037061338074,-0.6368157549876874,-0.6641284780655476,3.258813567020126,3.2587407897401794,0.16891331302086268,-0.7194057726151671,-2.475471577104518,0.022516110243333606,3.25926085224877,3.2590244244366193,100467700
0,0,0,0,0,0,0,0,0,0,0,0,0.38477229890493136,-0.5915372719213094,-0.5326242604999852,0.033088091979991435,3.2587537716333594,3.2581825683334547,0.7932633034304741,-0.45000709891403895,-3.2254300386226222,1.0075015196205996,3.2593363832636335,3.259380049631601,100468734
0,0,0,0,0,0,0,0,0,0,0,0,0.36185453675443374,-0.8423722317662515,-0.4940711848820668,-0.03695590936612002,3.258699090325724,3.2589146684306463,0.032577470848258835,-0.5319346465986546,-2.851636487440644,-0.633587590883683,3.259254557997531,3.2591577838847376,100469768
0,0,0,0,0,0,0,0,0,0,0,0,0.6259542376940533,-0.7901098835599284,-0.7162429113677634,-0.5622572019406799,3.2587730477777774,3.2583355973166936,-0.11452744180291197,-0.15021073224672465,-2.980768952461356,-0.6580808827973463,3.2592175792715046,3.2590366195483944,100470802
0,0,0,0,0,0,0,0,0,0,0,0,0.40116685642801,-0.9685660682399354,-0.8475795444940977,-0.7125835910539139,3.2587730477777774,3.258841497759997,0.22460996205925488,-0.38218024756672947,-3.0704384291694673,-0.4600161385555432,3.2593033384446306,3.259061009771944,100471835
0,0,0,0,0,0,0,0,0,0,0,0,0.11969423528840961,-0.8506558597869704,-1.1729703036511308,-1.3322184005043984,3.258868641718464,3.258915061821349,-0.045708852494818264,-0.4235743908374775,-3.2377510354222103,-1.0461454684907756,3.259322614589049,3.2593572329708613,100472869
0,0,0,0,0,0,0,0,0,0,0,0,-0.09283705864394409,-0.8434324197092556,-1.462231667307814,-0.12351130527392688,3.2588824103930483,3.2587978313920294,0.1179444334440748,0.3156767625423387,-2.6860980732557858,-0.10511517585696885,3.259402472901639,3.2592997979283087,100473903
0,0,0,0,0,0,0,0,0,0,0,0,0.8592998336911003,-1.920920899024117,1.2927628866151435,-1.3763296933567157,3.2589842985849735,3.2585141966955895,0.3955425495556056,0.7522476020154478,-2.265936346761745,0.00875923737993686,3.2593985389946147,3.259132606879783,100474937
0,0,0,0,0,0,0,0,0,0,0,0,-2.123127260580928,2.019054570085355,-1.8869051917678346,0.2370871349677008,3.2587903569686834,3.258735675661048,0.7123983040330771,-0.17789796327328242,-1.707356954497928,-0.27058002598047565,3.2590102623713326,3.2594390582369632,100475971
0,0,0,0,0,0,0,0,0,0,0,0,0.8088860283954178,-0.9611010862709386,-0.6584121177687785,-0.2270619663073976,3.2588186810992577,3.258710892046796,0.6822291710649933,-0.025139239447026184,-2.0166898985731483,0.08725130406037616,3.259524424019387,3.2594209622646524,100477004
0,0,0,0,0,0,0,0,0,0,0,0,0.6172835132221595,-0.7017425300768053,-0.5718106951487893,-0.5183323762813062,3.258795471047815,3.2586581776926726,0.6643735604731512,0.3914048661476214,-2.9530687395416186,-0.19741564958282107,3.2591058563120194,3.2591884683595262,100478039
0,0,0,0,0,0,0,0,0,0,0,0,0.6812826730349866,-0.5604971719380822,-0.9212340857069594,-1.23868464692648,3.258380837247471,3.258360380930946,-2.0081895122753988,-0.20545930927506795,-3.1612408711005293,-0.8247554093307745,3.2589453529054344,3.2589540075008876,100479073
0,0,0,0,0,0,0,0,0,0,0,0,1.1627146080392132,-0.42970538493459043,-0.595778023693326,-1.0386222646978216,3.258933551184362,3.258815533973638,-0.5531738106219543,-0.5203182125470892,-2.80173920413723,-0.6237870483144579,3.2594268631251886,3.258874542579,100480108
0,0,0,0,0,0,0,0,0,0,0,0,0.5848740202038312,-0.3713277782592509,0.0040188794158553375,-0.737879793391203,3.2590944479816493,3.258622379138753,-0.5589845846873027,-0.5228123096003902,-3.1299887335287013,-0.23088926445117763,3.2592663597186036,3.2594783973072046,100481142
0,0,0,0,0,0,0,0,0,0,0,0,0.40941468589480945,-0.6037532334033529,0.20552854603869272,-0.28922635188416856,3.258850545746153,3.258457941825144,0.2614458872611388,-0.021869375928565967,-2.5117154492992695,0.7892983185408494,3.259177060029156,3.2588977526304426,100482177
0,0,0,0,0,0,0,0,0,0,0,0,0.6669479092297446,-0.8325901785600398,-0.13553922600021673,-1.4450102025282623,3.25880609259678,3.258935124747172,0.6836548189705394,0.19886568771191687,-2.9023292067443376,0.5083949337476412,3.2593548726266466,3.2594008993388295,100483211
0,0,0,0,0,0,0,0,0,0,0,0,0.142027418855121,-0.23906352985662577,0.023089280496749937,-0.35503707588160943,3.2589146684306463,3.258910734523622,0.42599295687591515,-0.622754791111325,-3.0741288273488077,0.18740070908078063,3.2592828821281055,3.25918256749899,100484246
0,0,0,0,0,0,0,0,0,0,0,0,-0.17475752529591623,-0.4125441089325081,-0.204005337238948,-0.398806905604232,3.2586971233722117,3.25836431483797,-0.046764319749393435,-1.025208035136227,-3.214354516786875,-0.46569237300066624,3.259403653073746,3.2587883900151713,100485280
0,0,0,0,0,0,0,0,0,0,0,0,2.483295724784818,-0.8787136648552017,-0.5678614458872612,0.48933279387149736,3.258491380034849,3.2584351251644046,-0.23746164291639837,-0.8287109528435412,-3.2212148572462627,-0.4749685257635743,3.2589874457105927,3.2591156910795798,100486314
0,0,0,0,0,0,0,0,0,0,0,0,0.27526648941832654,-0.9183233878998027,-0.5286281977448699,-1.001976740595906,3.2586416552831716,3.258482332048694,0.5115994944095008,0.26383298204338335,-3.247954803461409,0.7902125585332582,3.2591444086008554,3.258935124747172,100487349
0,0,0,0,0,0,0,0,0,0,0,0,0.0514767469736036,-0.7423782160733003,-0.5798331117431058,-1.131460503513873,3.2589544008915903,3.258804125643268,1.2715174283406052,-0.37450401479053674,-1.1507476628717974,-0.3125020995738625,3.259403653073746,3.2587423633029893,100488383
0,0,0,0,0,0,0,0,0,0,0,0,-0.007086933503977478,-1.1084192166828175,-0.7185438535861794,-0.8138329164782663,3.2587321351447267,3.2586337874691234,-0.29431722096410046,0.41588871668442684,-3.0313483752427546,-0.42724433270029216,3.258907980788705,3.259195156001467,100489418
0,0,0,0,0,0,0,0,0,0,0,0,-0.41642294125830426,-0.837509135903017,-1.023243835359077,-1.0912894119369283,3.258719546642249,3.2588721822347857,-0.16630041197543285,-0.33435259274871265,-3.203922975530979,-0.47756569118090764,3.259092087637435,3.259054322130003,100490452
0,0,0,0,0,0,0,0,0,0,0,0,0.15449357682389936,-0.9126337781707976,-1.566663916905393,-1.5841068606504034,3.2591994832991933,3.2588363836808663,-0.42700554454392725,-0.9198383354947967,-3.2478871402605938,-1.021039273862752,3.2592663597186036,3.259258885295258,100491487
0,0,0,0,0,0,0,0,0,0,0,0,0.009850896579134055,-0.6470726307717122,-0.9910227764872046,-1.015106942070358,3.2588399241971877,3.258493740379064,-0.4826809504843891,-0.10526741805880285,-2.849763947697156,-0.43890954719895686,3.2592533778254245,3.25896580922196,100492521
0,0,0,0,0,0,0,0,0,0,0,0,0.8051566845365387,-1.1444180064699658,-0.42059878356442254,-0.9155448693686568,3.258968956347579,3.2588407109785926,0.1494058548695868,-0.6410069395311998,-2.925569155880112,-0.7385442302875793,3.2587852428895525,3.2591947626107647,100493555
0,0,0,0,0,0,0,0,0,0,0,0,0.10356324953594798,0.42545794552063293,0.1708621705606187,-1.1500773251148848,3.258942599170518,3.258701450669938,0.39803546643679927,-0.1575490424095443,-2.1543451731616465,-0.40305001772046295,3.259554715103473,3.2592423628857565,100494590
0,0,0,0,0,0,0,0,0,0,0,0,2.4110290659700713,-1.8434406332302848,-0.271236988453506,-0.2212468649443227,3.2583997200011874,3.2584256837875465,0.24164181252024322,0.04484378634021119,-2.3368131562248653,0.19028741005509017,3.259028751734346,3.2593918513526736,100495624
0,0,0,0,0,0,0,0,0,0,0,0,0.34651229936031097,-0.39829628447249943,0.360983176348588,-0.8742408125687614,3.2586613248182923,3.2586408685017663,0.8030288342271845,0.7223644640880184,-2.2804465628202633,0.11182366750522464,3.259269113453521,3.258997280478153,100496659
0,0,0,0,0,0,0,0,0,0,0,0,1.1543782656643706,-0.60256283313785,-0.1253543407147337,-0.5431002549052542,3.2587683270893484,3.2587923239221954,0.7395934032909158,-0.7194679283461485,-3.082127247110277,-0.8251074940094345,3.2591975163456812,3.259556682056985,100497693
0,0,0,0,0,0,0,0,0,0,0,0,0.9743504851282221,-0.5596415471603331,-0.76580974648115,-0.5961513514699163,3.258974463817413,3.258629853562099,-1.7390158580560515,-0.23913945426219155,-3.254492563544817,-0.40398825454571896,3.259416634966926,3.259168012043,100498728
0,0,0,0,0,0,0,0,0,0,0,0,0.44482850370746896,-0.4739354817790367,-0.8928894988166688,-0.7057496077715882,3.2588407109785926,3.2588643144207374,-0.793221210625316,-0.6481284914169897,-2.3503701866114364,-0.3512062372215077,3.2593497585475157,3.2591082166562337,100499762
0,0,0,0,0,0,0,0,0,0,0,0,0.4567781396839785,-0.8891436325482884,-1.014852024895194,-0.1630647734480826,3.258546454733187,3.258847005229831,-0.04683631024793508,-0.10022218230035095,-2.04551560229249,-0.032971648332077066,3.2589929531804263,3.2591294597541642,100500797
0,0,0,0,0,0,0,0,0,0,0,0,0.28600487542210523,-0.5752005428314856,-0.29328181663534836,-0.4295889412866761,3.258957154626507,3.258841497759997,-0.29013193728112424,-0.4099351417941024,-2.8109547747319668,-0.645912521590295,3.2593336295287165,3.2590783189628505,100501831
0,0,0,0,0,0,0,0,0,0,0,0,0.5727642742114394,-0.35924792996024246,-0.23709618295385634,0.35846665602524946,3.2585673044404153,3.258745117037906,-0.3785677407464672,-0.2964600201201463,-3.0014196039938454,-0.4732037750725478,3.2593765091152798,3.2589815448500565,100502866
0,0,0,0,0,0,0,0,0,0,0,0,0.4400912928690067,-0.48630093172799727,0.469600316238441,-0.6430041841273527,3.2585173438212087,3.258638901548254,-0.3434383444116526,-0.4363230033305887,-3.1366748019069197,-0.36142967479582727,3.259035045985585,3.2590102623713326,100503900
0,0,0,0,0,0,0,0,0,0,0,0,0.7416158248920232,-0.22733261911065805,-1.3022447827154138,-0.5103917849530917,3.258693976246592,3.259163684745274,-0.02609321190037869,-1.0860998017906907,-2.8645495372473637,-0.02171910068024405,3.258963055487043,3.259096021544459,100504935
0,0,0,0,0,0,0,0,0,0,0,0,-1.0289169226785806,0.5072419055988676,-0.4841667871674045,-1.5448834472755726,3.258834416727354,3.2588387440250806,0.9684028110984338,-0.23088257680923663,-1.9956556911058057,0.8791802262282641,3.2593367766543357,3.259341103952062,100505969
0,0,0,0,0,0,0,0,0,0,0,0,0.6250069528826419,-0.8870208963180656,-0.3336153785723899,-0.7738396374988123,3.2588127802387215,3.2585220645096378,1.2304411447574073,0.198388111399187,-2.7317404427218963,0.24292583977292057,3.259117658033092,3.2589874457105927,100507004
0,0,0,0,0,0,0,0,0,0,0,0,0.5110251439839772,-0.6815521456661398,-0.07846610289408003,-1.3068026073935757,3.2590122293248447,3.2588308762110323,-0.012650658208210253,1.4133406774211736,-3.127512339057009,0.27505799234604744,3.2592238735227435,3.259144801991558,100508038
0,0,0,0,0,0,0,0,0,0,0,0,-0.029167560239739446,-1.0521250071674593,-1.341947345965784,-0.7447212510968746,3.258824975350496,3.2587266276748927,2.9865081294188656,-0.6610128237024335,-2.090085982094524,-0.0847316366114183,3.259432763985725,3.259465415414025,100509073
0,0,0,0,0,0,0,0,0,0,0,0,0.20609620882227525,-1.3934712998236776,-1.7633124546185082,-0.32945251815945126,3.25885172591826,3.2585543225472353,-0.021536960785026642,-0.784637032107953,-2.8560310549773043,-0.9292140161054153,3.259204597378325,3.2591939758293598,100510107
0,0,0,0,0,0,0,0,0,0,0,0,0.21601044130449787,-1.2825359085245023,-1.4748130887523994,-0.5351785463307556,3.2584697435462164,3.2586562107391606,0.6938593737911432,-0.30106977237102656,-2.4669468005832194,0.21706905568469234,3.2592317413367917,3.2590732048837188,100511141
0,0,0,0,0,0,0,0,0,0,0,0,0.4189697526657286,-0.9808036662106117,-1.2481571016498922,0.005081427703073943,3.258600349259418,3.258409161378045,1.2558726734963266,0.42546463316257394,-2.4783327076831707,0.2154069799669957,3.2590043615107964,3.25906848419529,100512175
0,0,0,0,0,0,0,0,0,0,0,0,0.16210293318068184,-0.43764872999772186,-0.3378175780555699,0.011301328098932277,3.2589579414079117,3.258649129706517,0.6217296149408358,0.09647631603197049,-2.2973784920428386,-0.08769740911691297,3.258841104369295,3.259166045089488,100513209
0,0,0,0,0,0,0,0,0,0,0,0,0.5936926595798324,-0.6996717214193011,-0.148648577767441,0.5447064691432082,3.258438665680726,3.2585433076075683,0.34964250917941436,0.2903479087767492,-2.9062930114618553,0.17287121687784396,3.259418601920438,3.2594095539342822,100514243
0,0,0,0,0,0,0,0,0,0,0,0,-0.48095121156587733,-0.5607607437086992,0.9044453507000626,-1.8612671329101482,3.258993346571129,3.2585248182445543,-0.08559591598462057,-0.5353595060538657,-2.3986529944721453,-0.8098529827419498,3.259086580167601,3.2592199396157193,100515277
0,0,0,0,0,0,0,0,0,0,0,0,0.05179185292623674,-0.4381086037288432,-0.857949323409715,-0.8739878623471095,3.2591975163456812,3.258839137415783,0.3724489417611291,-0.4341648619371488,-2.7844292264496358,-0.09912186850570064,3.2588289092575202,3.258913488258539,100516311
0,0,0,0,0,0,0,0,0,0,0,0,0.9831124762430757,-0.7808156348247093,-1.086926315656461,-0.20098645698862755,3.2586806009627103,3.2585200975561257,0.5354861778600427,-0.18609071804174399,-2.3237022308948316,-0.5990113018764617,3.2591019224049953,3.2593568395801586,100517345
0,0,0,0,0,0,0,0,0,0,0,0,0.45138790027951003,-0.6298094665777046,-0.5735077826390007,-0.01839337568204113,3.2588013719083513,3.2588887046442867,-0.8939068071731099,0.9166428228190926,-3.1137082593093224,0.055145115273608596,3.2593013714911185,3.259085006604791,100518378
0,0,0,0,0,0,0,0,0,0,0,0,0.8545795386528419,-0.3741554706281984,-0.5826025822880961,-0.4397860216839339,3.2588788698767264,3.2587667535265386,0.07007153869528039,-0.7701830709198797,-1.033743826597193,-0.2388121531977836,3.2591263126285446,3.258868641718464,100519412
0,0,0,0,0,0,0,0,0,0,0,0,0.9203127646819073,-0.13112892283546004,-0.5476856169325848,-0.49301925814381337,3.258942599170518,3.258360380930946,-0.10005538464252765,0.09142635958508963,-2.692274700674379,-0.15167768617602423,3.259022064092405,3.259348184984706,100520446
0,0,0,0,0,0,0,0,0,0,0,0,0.4849008542181079,-0.41914992560743397,0.05799680447540336,-0.11945662730415192,3.2587211202050588,3.2588104198945067,-0.03257235676912746,-0.3782215569283434,-2.746745544284051,-0.5732107726586786,3.259221119787826,3.2590621899440513,100521480
0,0,0,0,0,0,0,0,0,0,0,0,0.7394478487310229,-0.9057683236322789,0.05364118261828215,-0.8350213331009546,3.2588218282248764,3.258989412664105,-0.021215560581154893,-0.43212473775443283,-2.9957815284468565,-0.5026738527624431,3.2591353606147004,3.259198696517789,100522514
0,0,0,0,0,0,0,0,0,0,0,0,0.32353946251147536,-0.5348862570388623,-0.5192320608177258,-1.126797643518167,3.2588332365552466,3.2588462184484266,-0.5515856923563113,-0.17135312215723064,-3.1800775981041904,-0.3933596245479136,3.259488232074765,3.259079499134957,100523548
0,0,0,0,0,0,0,0,0,0,0,0,1.132624153211612,-1.0449275308761037,0.13968241687803468,-0.9249563485331951,3.2591672252615957,3.258929617277338,-0.13325952687973106,-0.4517982067821272,-2.804303718126263,0.03128557578153321,3.2589583347986144,3.2592195462250166,100524582
0,0,0,0,0,0,0,0,0,0,0,0,-0.5415644576030323,1.4849019867064936,-0.6593306850589138,0.6332571426936557,3.25848980647204,3.258758098931086,0.3588376234576253,-0.12757778496477423,-2.721008350969356,-0.05553142494337856,3.2591613244010595,3.259374148771065,100525616
0,0,0,0,0,0,0,0,0,0,0,0,0.15410254646570043,-0.535855571729609,0.3710665668328484,-0.7463730986563084,3.2590067218550107,3.258706958139772,0.49771240922360527,-0.35472747739881005,-2.913300086653243,-0.2664982040522341,3.259385557101435,3.2592069577225393,100526649
0,0,0,0,0,0,0,0,0,0,0,0,0.10664035161022563,-0.608090759288163,-1.294791995858192,-0.536707262600334,3.2589795778965445,3.258789963577981,0.9726439562611527,0.047139221088793405,-3.2471475657400566,2.3140783207509896,3.258881623611644,3.2587502311170375,100527683
0,0,0,0,0,0,0,0,0,0,0,0,0.27625626042559864,-0.7592114042295699,-1.1435395650314766,-0.5439204745197861,3.2587466906007156,3.258491773425552,0.6767626138642565,-0.7161898036229376,-1.8236231832055072,-1.1217779781553718,3.2592203330064216,3.259018130185381,100528717
0,0,0,0,0,0,0,0,0,0,0,0,0.3836959819431283,-1.069530185405038,-0.7360985202906751,-0.8895598399114417,3.2586247394829675,3.2587643931823242,1.3233407525230352,0.6306399143504994,-2.2333573023506763,0.5091644059615619,3.259269113453521,3.2592718671884375,100529751
0,0,0,0,0,0,0,0,0,0,0,0,0.37167592903088675,-0.9245704322541275,-1.2493455349618834,-1.1770631405190397,3.2588293026482225,3.258821041443472,1.037449173623225,0.5091254602820229,-2.4086699019276976,0.3026417616178705,3.2591522764149037,3.2589378784820884,100530785
0,0,0,0,0,0,0,0,0,0,0,0,0.009289134656087715,-0.8096869718655314,-0.6697999918222417,-0.7080525169435163,3.258843071322807,3.258706958139772,0.7508034647468882,0.2651103216541197,-2.438407091904532,-0.03251138121025338,3.259173519512834,3.2589709233010913,100531819
0,0,0,0,0,0,0,0,0,0,0,0,-0.17534761134953633,-0.7245757132262841,-0.8979422089984666,-0.596393680142603,3.2588867376907746,3.258968956347579,0.3465606864167078,0.22606432748607722,-2.4597489309011613,-0.10653767663689573,3.259315926947108,3.2594469260510115,100532853
0,0,0,0,0,0,0,0,0,0,0,0,0.5868748053163058,-0.8191830300310886,-0.39990997313379917,-0.4999205112362517,3.2589052270537886,3.2588045190339705,0.23423898628222778,0.4982371924206248,-1.7816857673747262,-0.017846562605686497,3.259346611421896,3.259252984434722,100533887
0,0,0,0,0,0,0,0,0,0,0,0,-0.626473513421239,1.1655509550036138,-1.8548749273866327,0.4071377405092407,3.2590472410973597,3.258607823682764,0.0916895379650042,0.6666379173562428,-2.0933487645803406,-0.05135872976287958,3.2593654941756123,3.258902079928169,100534921
0,0,0,0,0,0,0,0,0,0,0,0,2.4544684475026664,-1.2350430291942391,-0.39769164296289,-0.9248717695321762,3.258590121101155,3.2587187598608445,0.6306041157965798,0.10160849113565577,-2.879048344975512,-0.49664356668514803,3.2591168712516865,3.259130639926271,100535955
0,0,0,0,0,0,0,0,0,0,0,0,0.5402556467361029,-0.4414197732710568,-0.1963692303144014,-0.6535486285148415,3.258489019690635,3.258426470568951,-0.7603046369915768,-0.33221726801601265,-2.895350849074226,0.1994325637140946,3.2591534565870113,3.258900112974657,100536989
0,0,0,0,0,0,0,0,0,0,0,0,0.3725055900222766,-0.4581715295519268,0.1885993705510343,-0.4721616831018547,3.2588045190339705,3.259059042818432,1.1140805022812488,-0.28660479624328566,-1.3091161381144687,-0.3557888455139214,3.2593175005099173,3.258927650323826,100538023
0,0,0,0,0,0,0,0,0,0,0,0,0.3744587748597592,-0.6321304717219438,0.13082050452476796,-0.1827417829920987,3.259042127018228,3.2585322926679003,-2.0299019253137023,2.3242455034548644,-3.0269038470868876,-0.26550567931004515,3.259138901131022,3.259140081303129,100539057
0,0,0,0,0,0,0,0,0,0,0,0,0.37819126584425755,-0.3740972488042413,-0.18865169151445524,-0.40587220261957674,3.258677060446389,3.2584858725650157,0.0532348100226891,-0.29412681986413236,-2.9813374020263432,-0.09669150074619064,3.2591282795820566,3.2591833542803945,100540091
0,0,0,0,0,0,0,0,0,0,0,0,0.4201754951686257,-0.8842030387166785,-0.5252257615596964,-1.3206165219088224,3.259123558893628,3.2590747784465286,-0.10844562154360074,-0.8857557518191042,-2.070661135990755,0.20727402058530098,3.2593363832636335,3.2593733619896605,100541125
0,0,0,0,0,0,0,0,0,0,0,0,0.7727778759929985,-0.46032691721044977,-1.5120172276517423,0.2594045829063157,3.2588694284998687,3.258892638551311,0.23505409181762835,-0.5434126071229705,-2.4004751802057243,0.03469233926443329,3.258885557518668,3.2590157698411666,100542159
0,0,0,0,0,0,0,0,0,0,0,0,0.5209614063455351,-0.6398192930006138,-1.3076247939616197,0.13488265691788873,3.258745117037906,3.258435911945809,0.16106516850771527,-1.0476749715417588,-2.397965740915029,-0.17130158797521447,3.2593308757937995,3.2591900419223356,100543192
0,0,0,0,0,0,0,0,0,0,0,0,0.7748687475763257,-0.4033592228125599,-1.3046676760515779,-1.1756858796698901,3.2587702940428604,3.259026784780834,0.4887407408643652,-0.5846899133551017,-2.6691783391449855,0.3325709262574823,3.2591007422328877,3.259328122058883,100544226
0,0,0,0,0,0,0,0,0,0,0,0,0.3231913117398395,0.7046233301905787,-2.2915803064799674,2.7979272482308444,3.258824581959794,3.258614511324705,0.8565787502025068,-0.7237157611508084,-2.475625786259864,0.15551757282228143,3.259166045089488,3.2589512537659706,100545260
0,0,0,0,0,0,0,0,0,0,0,0,-0.22183931134215726,-0.6501060664780219,0.20098645698862755,-0.4545401399779486,3.2590558956928124,3.258815533973638,0.6934533945862525,-0.3001850366812988,-3.028461280877743,0.5638500408947515,3.2591719459500244,3.2594040464644487,100546294
0,0,0,0,0,0,0,0,0,0,0,0,0.058459825332143944,-0.35572865673645215,-0.401675903996933,-0.7689647399145054,3.2586066435106567,3.258527965370174,0.5379153654474456,-0.6829935291997825,-1.594339739601581,0.3229934362165256,3.259145588772963,3.25941073410639,100547327
0,0,0,0,0,0,0,0,0,0,0,0,-0.0514621915176143,-1.2282003913164605,-0.487467335160653,-1.6582299301898396,3.258636934594742,3.2585562895007474,-0.4214654232818393,2.0649062234051496,-3.1700488889275653,-0.03866519196810626,3.2593839835386254,3.25888752447218,100548361
0,0,0,0,0,0,0,0,0,0,0,0,-0.17423195531749192,-0.9582069108732831,-1.1158806581354925,-1.2965303893721567,3.2588399241971877,3.258821041443472,1.3592093299876844,-0.6701080167422314,-2.2342463653381306,0.19183540246908692,3.2595810722805347,3.259151489633499,100549395
0,0,0,0,0,0,0,0,0,0,0,0,0.25554305977142566,-1.0562532491985857,-0.36893517600717257,0.041763930531016645,3.258926076761016,3.258745903819311,0.6430466703232134,-0.33513229312089593,-2.4847166520019357,0.21136803762531728,3.258813960410828,3.258995313524641,100550428
0,0,0,0,0,0,0,0,0,0,0,0,0.0686718545760935,-1.2449922734489764,-0.9514704884851561,-0.6792720531549516,3.2589937399618316,3.25864952309722,0.768710216130044,-0.3095229517844858,-2.2583360383911177,0.02456056172377607,3.259382803366518,3.259298617756202,100551462
0,0,0,0,0,0,0,0,0,0,0,0,0.22669217904712902,-1.106161547441667,-0.876584240983038,-0.9170130034700635,3.258907980788705,3.2587482641635255,0.7848258596451114,0.4903327930370322,-2.058672947725409,0.07313093818794944,3.258994133352534,3.2589846919756758,100552496
0,0,0,0,0,0,0,0,0,0,0,0,-0.0851978045937782,-0.8095949184411666,-1.023297336494605,-1.1480804739094346,3.258521277728233,3.2583450386935517,0.45236193565868565,0.18636294440781406,-2.2845445137673033,-0.20995851873857005,3.2588674615463566,3.258714432563118,100553529
0,0,0,0,0,0,0,0,0,0,0,0,1.5130785957668538,-1.270273526939574,0.3236559061593897,-0.10135632769540877,3.2588159273643402,3.2590393732833114,0.2882098303091324,0.5201089286934052,-1.9076636323527851,0.1190010808707572,3.2592663597186036,3.259132606879783,100554563
0,0,0,0,0,0,0,0,0,0,0,0,-0.28101314079918155,0.7377519414129187,-1.7013180138251798,-1.1501300394690084,3.258957154626507,3.2588088463316973,-0.6167390604900194,0.46797010516763987,-2.0857291800652957,0.2349592846583467,3.259259672076663,3.259090514074625,100555597
0,0,0,0,0,0,0,0,0,0,0,0,0.8750720471229609,-0.5271856340391199,-0.3790590857337815,-0.6925245991378544,3.2588906715977988,3.258538586919139,0.2123011603714419,-0.1411946107381118,-2.598319625654176,0.7281736645905571,3.259140081303129,3.2588025520804584,100556630
0,0,0,0,0,0,0,0,0,0,0,0,0.9107297671711166,-0.45753974408385084,-0.15361434860400539,-0.5579975674149474,3.2588576267787963,3.2588383506343783,-0.4875074610122992,-0.003939807884670244,-2.4312639035301093,-1.307362795753812,3.2591861080153115,3.259142048256641,100557664
0,0,0,0,0,0,0,0,0,0,0,0,0.8242857008320928,-0.3697302186167501,0.5724235978631493,-0.5236651806432223,3.258811600066614,3.25902285087381,-0.4621986701725328,-1.2901846039515261,-1.8023316982187865,-0.8065811522699776,3.2590429137996333,3.259168405433703,100558698
0,0,0,0,0,0,0,0,0,0,0,0,0.47067112573041026,-0.43548468774374577,-0.18120480551776952,-0.4445653253275544,3.2588328431645444,3.2588584135602012,-0.8043089275728378,-0.7235442428045562,-2.767865117533817,-0.7851885658727367,3.2594764303536925,3.2590975951072685,100559731
0,0,0,0,0,0,0,0,0,0,0,0,0.6362917585720728,-0.3279387507365645,0.10130597368549987,0.03749446123772397,3.2588123868480188,3.2586294601713965,0.022672286352191727,-0.302862060411222,-2.468939324490943,-0.14116353287262115,3.258994133352534,3.25911254395396,100560767
0,0,0,0,0,0,0,0,0,0,0,0,0.7906535495106636,-0.8659135181800743,-0.11261162908215869,-0.6315462865288599,3.2584933469883612,3.2584638426856802,0.4820818164446135,0.1109389318154969,-2.0750360339922946,-0.41879430041245225,3.258852119308963,3.2590574692556222,100561802
0,0,0,0,0,0,0,0,0,0,0,0,0.3740964620228364,-0.4922564735718338,-0.4364473147925514,-0.8528675023159388,3.259047634488062,3.2588340233366515,0.5066148408192206,-0.16155415315081512,-2.297620427324823,-0.5940238945512646,3.2592738341419496,3.2592879962072363,100562837
0,0,0,0,0,0,0,0,0,0,0,0,0.24701041543607893,-0.4982340452950054,0.018909110892905104,-0.5440022997858882,3.2587773750755042,3.2586613248182923,0.6695171439072064,0.057533390227960376,-2.3533044878607376,0.25223739769904585,3.259515769423934,3.259014589669059,100563872
0,0,0,0,0,0,0,0,0,0,0,0,0.005281270179899953,-0.7935988656996329,0.8930515757860631,-1.9197702312195577,3.2588167141457456,3.2586904357302706,1.0790773843619088,0.4461849148493904,-2.2011323095717796,0.7717424716642465,3.258822615006282,3.2590212773110006,100564907
0,0,0,0,0,0,0,0,0,0,0,0,2.156999773621532,-0.5278217468049224,-0.6682173810264327,-0.6042976861354931,3.2590964149351613,3.2589146684306463,1.1596418332626621,0.37648198324227133,-2.038216631199912,0.45205902481782734,3.2592108916295635,3.2592451166206735,100565943
0,0,0,0,0,0,0,0,0,0,0,0,0.6258232385901497,-0.5017383696721041,-1.168977781412337,-0.7686783514831484,3.258962662096341,3.2586609314275896,0.18655609924269903,-0.829572871872529,-2.9069869526609122,-0.9574873992785692,3.259500820577242,3.258892638551311,100566978
0,0,0,0,0,0,0,0,0,0,0,0,0.10733350602787804,-0.9856789571856208,-0.7546323364534778,-0.782869921072712,3.25878484949885,3.258662504990399,0.6565395780252907,-1.0484538851325376,-3.164787288282786,-0.02109990371464535,3.2590657304603727,3.2589457462961366,100568013
0,0,0,0,0,0,0,0,0,0,0,0,0.46875098571193047,-0.1390600727868167,-0.4204178238413124,-0.18501322090783368,3.2583867381080074,3.2589252899796115,-0.8795181488416371,-1.4056915886034473,-2.6157468337710896,-1.5566863485200821,3.2591298531448665,3.2593946050875906,100569048
0,0,0,0,0,0,0,0,0,0,0,0,0.30912248004942894,-1.0311710514034094,-1.0623421504905401,-0.6783507321298994,3.2586589644740775,3.2587006638885336,-0.49667031725291216,-0.4736966936226718,-2.182769618364527,-0.36689190469883737,3.2590244244366193,3.259018130185381,100570083
0,0,0,0,0,0,0,0,0,0,0,0,0.10389448450738006,-1.1055997855186206,-0.5683480701861465,-1.2161063809521653,3.258671552976555,3.2588025520804584,-0.0023489358841104367,0.17035508994520782,-2.206911612380935,0.13925283423099927,3.2592124651923733,3.258759279103193,100571119
0,0,0,0,0,0,0,0,0,0,0,0,0.13481814084269295,-0.838924162259598,-1.2574836084227095,-0.6905651200491333,3.2591082166562337,3.2590767454000407,0.4919390072749862,0.028666380484864768,-2.2696660840113263,0.19532556478089866,3.258941025607708,3.259156997103333,100572154
0,0,0,0,0,0,0,0,0,0,0,0,-0.08610575033494833,-0.5959263319881358,-1.287402938294761,-0.8108714712704982,3.2587415765215844,3.258942599170518,0.523108139408605,-0.48061525590601634,-2.0418350388807105,0.21711154188055298,3.2591892551409307,3.2593230079797513,100573189
0,0,0,0,0,0,0,0,0,0,0,0,-0.1308193243526607,-0.9197942757361263,-1.1065691002093672,-0.3339005868316396,3.2590366195483944,3.2588088463316973,0.9197706722939815,0.24769688221179031,-1.7003726959672802,0.17424139669434982,3.259665257890851,3.2593713950361485,100574224
0,0,0,0,0,0,0,0,0,0,0,0,0.3556291288887416,-0.9725153175014636,-1.1531209889794574,-0.4804933047882682,3.2586817811348174,3.258743936865799,0.8106476319608249,0.7578148672360023,-1.4643178182027123,0.3506220520284237,3.259460694725596,3.259206170941135,100575259
0,0,0,0,0,0,0,0,0,0,0,0,0.11505576551625317,-0.7336311738051383,-1.2116134657399016,-0.1877996072530278,3.2586636851625066,3.258610577417681,0.7195922398081112,0.6678149423378636,-1.3846105676425178,0.11528235856084329,3.259046060925252,3.259193582438657,100576294
0,0,0,0,0,0,0,0,0,0,0,0,0.9949216717388238,-0.8187955401892114,-0.19836647491055426,-0.046675413450648,3.258708531702582,3.258878083095322,-0.11061477787670825,0.7109384311364211,-2.9188079498777326,-0.48680997929692016,3.258928043714528,3.2592372488066252,100577343
0,0,0,0,0,0,0,0,0,0,0,0,0.6708330358067792,-0.6115942968838569,-0.4991781829807976,-0.9327675143203156,3.2586865018232465,3.2585067222722435,0.8212459708745444,-1.815011073948273,-0.18648607569766945,-2.3889405714202607,3.259468955930347,3.259187681578121,100578392
0,0,0,0,0,0,0,0,0,0,0,0,0.46687883935914504,-0.35231481222090866,-0.06773401114153994,-0.45320182480833826,3.2586802075720076,3.258775408121992,-0.5446938806407309,-0.3971790548776454,-2.4629861429913213,0.09349677485189138,3.259027571562239,3.258915455212051,100579441
0,0,0,0,0,0,0,0,0,0,0,0,1.07548336690466,-0.4304799712276424,-0.153279966506954,-0.6445820742347328,3.2588462184484266,3.2589949201339383,-0.6870285376344367,-0.3908804763413043,-2.1258640796976187,-0.7947479599413824,3.259368247910529,3.2594772171350974,100580490
0,0,0,0,0,0,0,0,0,0,0,0,1.1307642019706012,-0.24188335441152506,-0.6232189921401728,-0.4194654249507695,3.25902285087381,3.2584732840625383,-0.3214651133376495,-0.49240242152242913,-2.520098605167699,-0.6704125011458995,3.259313566602893,3.259517736377446,100581539
0,0,0,0,0,0,0,0,0,0,0,0,-0.20021187069557556,0.014293064390786217,-1.3081511507214485,-0.024916580309460198,3.2588666747649517,3.2588776897046197,-0.37073690542422594,-0.46430960468168314,-2.6733950940841544,-0.9518701734388081,3.2592014502527054,3.2590574692556222,100582588
0,0,0,0,0,0,0,0,0,0,0,0,0.4682018122913614,-0.9566431828311899,-0.16361040635233,-0.5233953146213668,3.258649129706517,3.258879263267429,-0.9381168410917331,-0.6219986941812865,-2.5027933481685336,-1.4923118939771527,3.2593143533842985,3.259166438480191,100583637
0,0,0,0,0,0,0,0,0,0,0,0,0.7330851475101884,-0.3186346672337851,-1.4733370868369442,-0.2002181649468142,3.2588328431645444,3.258324582377026,-0.9144524233880548,-0.6865218504097284,-2.6866972072955617,-0.6796461677129468,3.259092481028137,3.2589563678451023,100584686
0,0,0,0,0,0,0,0,0,0,0,0,1.606977809307314,-2.1192952417487194,0.4502222836282591,-0.35632936433903745,3.2587958644385173,3.2584587286065494,0.6090333234111457,-0.18014304401195574,-1.9906560886688338,-0.028269842656832054,3.2589787911151396,3.2591042827492096,100585735
0,0,0,0,0,0,0,0,0,0,0,0,-0.01641186671398481,-0.5576262065918691,-0.7967294689094386,-0.6052666074355373,3.2586507032693266,3.2585126231327797,0.3538801138258116,-0.22905881751284807,-2.287844274979147,-0.01167583604762984,3.259099168670078,3.2590767454000407,100586784
0,0,0,0,0,0,0,0,0,0,0,0,0.12218282487187682,-1.0292776619526935,-0.45839025478246864,-0.952742714016761,3.2588666747649517,3.2589146684306463,2.0121245994716404,-1.197013556601233,-0.22335819284417543,-0.19572367617174102,3.258810026503804,3.2591034959678047,100587833
0,0,0,0,0,0,0,0,0,0,0,0,0.3572735020248296,-1.021040060644157,-0.6044467812117077,-1.213511969269749,3.258932371012255,3.2590566824742178,-0.14460845525365534,1.7052298909699786,-2.773803350186747,0.27711817945458644,3.2591904353130383,3.259193582438657,100588882
0,0,0,0,0,0,0,0,0,0,0,0,-0.04450822407105256,-0.7665516813459017,-0.8050429946235411,-0.9391900109279168,3.2589366983099817,3.2586318205156113,1.2462558443851286,0.4491534410898019,-1.9506014407398031,0.6718436565212793,3.2593887042270544,3.2595905136573924,100589931
0,0,0,0,0,0,0,0,0,0,0,0,0.19104390037583116,-0.916000022411349,-0.651472705778206,-0.7639879541382734,3.258776588294099,3.2587706874335627,1.1634935216299918,0.2665473778900358,-2.2742266624244047,-0.02613687826834658,3.2590574692556222,3.2590724181023143,100590980
0,0,0,0,0,0,0,0,0,0,0,0,0.30604144406812717,-0.9366640492277204,-0.7957365507765471,-0.8538305227554467,3.258900899756062,3.2590975951072685,0.12962695713364566,-0.10325129070893416,-2.3063871391281054,-0.09989134071962126,3.2593289088402875,3.2590913008560296,100592029
0,0,0,0,0,0,0,0,0,0,0,0,0.44628719643201786,-1.1036198501133738,-0.6618881180153033,-1.3539280598077843,3.2589768241616275,3.2587718676056703,0.39056733734218324,0.05422576120206847,-2.2298396026896956,0.15745187490604814,3.259176666638454,3.2591707657779176,100593078
0,0,0,0,0,0,0,0,0,0,0,0,0.10224775102707756,-1.088870059117086,-1.4355467957910053,-0.6727858272535594,3.2585027883652193,3.258841497759997,0.8436613730980602,0.4801510548771685,-1.3521011533857765,0.2824289539371674,3.2593230079797513,3.2591758798570485,100594097
0,0,0,0,0,0,0,0,0,0,0,0,1.1745013802649236,-1.9336329261819036,-0.27624209836031177,-0.5459971840378265,3.2586306403435037,3.2585543225472353,0.693021844985705,0.343438737802355,-1.5613307191527745,0.6945383661435086,3.259376115724577,3.259136540786807,100595116
0,0,0,0,0,0,0,0,0,0,0,0,0.46992053627020547,0.14973669645031648,-0.2675635060743697,-0.013169540544693534,3.2589347313564696,3.2585543225472353,0.4289976750609487,0.4010291696821653,-2.226658645469981,0.6279971156116861,3.25888752447218,3.2592388223694346,100596135
0,0,0,0,0,0,0,0,0,0,0,0,0.507948435300402,-0.3279127869502052,-0.10769306512988389,-0.16641134815351344,3.2590869735583032,3.258668405850935,0.2462110455287749,0.0859696371519133,-2.3919464697774013,0.13146959918375006,3.2596562099046955,3.259232528118196,100597153
0,0,0,0,0,0,0,0,0,0,0,0,1.0502343714516607,-0.5863083227048305,0.005905187833927611,-0.2676933250061661,3.2585082958350533,3.258527965370174,0.6714479054746515,-1.4671506246507913,-0.3325780072901257,-0.7527342263143332,3.259320647635537,3.2594256829530814,100598172
0,0,0,0,0,0,0,0,0,0,0,0,1.1167055984384535,-0.6964246745615809,-0.6159259219081309,-0.5810231186179063,3.259066517241778,3.2590177367946787,1.115840138893144,0.5192883156881708,-1.94925447097474,0.3954343671124419,3.259024817827322,3.2591499160706894,100599191
0,0,0,0,0,0,0,0,0,0,0,0,0.7041520481290875,-0.3181991837262134,-0.3300654208738113,-0.8920067300804531,3.2590492080508717,3.259097201716566,0.13157581467340168,-0.3684434376291558,-2.1969875451311522,-0.683145378010914,3.2593234013704535,3.259326548496073,100600210
0,0,0,0,0,0,0,0,0,0,0,0,0.47241345315139927,-0.2548975056287653,-0.5581561038680201,-0.8141027825001219,3.2589681695661747,3.2584866593464206,-0.8876149162787098,-0.7537239973216053,-3.007867277606401,-1.2795036529902997,3.2594115208877943,3.259269113453521,100601228
0,0,0,0,0,0,0,0,0,0,0,0,0.6681512913884271,-0.4265499981105325,-0.889459131891624,-0.26504737914173354,3.2587541650240617,3.2585421274354607,-1.1100242507486642,-0.39930218449857047,-3.0274046334510603,-0.7217499878108486,3.259003968120094,3.259042127018228,100602247
0,0,0,0,0,0,0,0,0,0,0,0,-0.18867765530081454,-0.2399600672674259,-1.18264928849331,-0.2313550390428351,3.258645195799493,3.258811993457316,-0.21561783738348927,-0.20276497635423854,-2.7276959929103843,0.06111363901062477,3.2593973588225076,3.259267146500009,100603266
0,0,0,0,0,0,0,0,0,0,0,0,1.242424218943622,-0.8087440143518464,-0.24914259304315958,0.32027038577441996,3.2589776109430324,3.2586062501199544,0.08740708677853187,-0.3644438343577187,-2.842861907823313,-0.5809928275338205,3.2589052270537886,3.2591184448144963,100604285
0,0,0,0,0,0,0,0,0,0,0,0,-0.058860297067200786,-0.6329463640387492,-0.5441616230203656,0.2403211999322414,3.258972103473199,3.2589835118035686,0.0847607475233969,-0.32717399921107276,-2.258677894911515,-0.016639639930682175,3.259287209425832,3.2590385865019065,100605303
0,0,0,0,0,0,0,0,0,0,0,0,0.35139978544709505,-0.9089075814375378,0.11552468723352995,-0.9719893541323368,3.258459515387954,3.258936304919279,0.39694420062830454,0.3718380060002811,-2.4990651844817617,0.12236378459498698,3.2594296168601056,3.2594008993388295,100606322
0,0,0,0,0,0,0,0,0,0,0,0,0.42881671533783855,-0.6044625168398042,-0.3571975776192638,-0.1898676621756151,3.2590244244366193,3.258501608193112,1.1653782564852542,0.019118788137291447,-0.6805965996499775,0.0007006288409982729,3.2589205692911825,3.2595138024704218,100607341
0,0,0,0,0,0,0,0,0,0,0,0,0.23725157228130964,-0.8533348504704058,-0.5621800973630067,-0.6584616849972826,3.259069664367397,3.258780522201123,1.2559607930136671,0.5329570690342269,-3.0192874096974625,2.0965875502333104,3.2592183660529095,3.2591849278432043,100608360
0,0,0,0,0,0,0,0,0,0,0,0,0.8186299227034952,-0.8712675656399208,-1.1262736471025523,-0.8508537353102845,3.2584839056115036,3.258669979413745,0.25434243134765994,0.14838972668525297,-2.203769207450057,0.20282044444327885,3.2594264697344864,3.259107429874829,100609378
0,0,0,0,0,0,0,0,0,0,0,0,0.3810358740134089,-0.715770449134165,-1.3574961134786738,-0.8560390181587956,3.2589414189984103,3.258472890671836,0.0662595827888945,0.2536693398558306,-2.3505554736322725,-0.17031575087496648,3.258983118412866,3.258824188569091,100610225
0,0,0,0,0,0,0,0,0,0,0,0,-0.05289964114423289,-1.03548418706467,-1.4826301554000563,-0.8962895746576279,3.258701450669938,3.2586617182089945,-0.2288920198550248,-0.0640872793301677,-2.4610471202191255,0.034881560192294145,3.259248657136995,3.259191615485145,100611071
0,0,0,0,0,0,0,0,0,0,0,0,-0.14014583112547768,-0.768584724495974,-0.8312459625298931,-0.96563766785117,3.2586837480883295,3.25869200929308,0.9750027269128234,1.0913389791654322,-1.334182206890846,1.0874400839138132,3.2593643140035047,3.259197909736384,100611917
0,0,0,0,0,0,0,0,0,0,0,0,0.57738386122988,-0.9377234503893197,-0.7837090234409598,-0.6462173993846654,3.258961088533531,3.258961481924233,1.525599041652565,-0.17543297713196002,-1.2942837350706737,0.42478485402880356,3.259047634488062,3.259018130185381,100612763
0,0,0,0,0,0,0,0,0,0,0,0,-0.6554007119418039,0.4941026561382599,-1.0022407057572253,-1.6469380434677652,3.2587183664701422,3.2588257621319006,0.7328919926753035,-0.14165723820414997,-1.886411879827008,-0.48635482625422793,3.2590948413723515,3.2592828821281055,100613609
0,0,0,0,0,0,0,0,0,0,0,0,0.778885660038669,-0.5514287294660484,-0.7218703653657872,-0.0525774541589563,3.2590708445395045,3.258740002958775,0.05900034415725995,-0.7602562499351799,-2.648861676318845,-0.8620213105703962,3.2592746209233545,3.2594060134179608,100614455
0,0,0,0,0,0,0,0,0,0,0,0,0.9339024464967782,-0.899939060203917,-0.7496028363231225,-0.5513850630980804,3.259151096242797,3.25869358285589,-0.06207901979434726,-0.1907169927021256,-2.585471485313354,-0.21679368219300296,3.2596105765832157,3.259003574729392,100615301
0,0,0,0,0,0,0,0,0,0,0,0,0.5973212954188937,-0.6915006031394724,-0.9488390980767129,-0.4838005404234576,3.2588186810992577,3.258526391807364,0.5496447026306036,0.6350726407852937,-2.816506697715127,0.506892181264422,3.2591947626107647,3.25910113562359,100616147
0,0,0,0,0,0,0,0,0,0,0,0,0.9620200469517763,-0.8624839380364344,-0.8178655645687061,-0.8032664422114423,3.2585358331842222,3.2587836693267427,1.6134612814737894,-2.4887709365810076,-0.3309127844468098,-1.0115872754558652,3.258970529910389,3.259031112078561,100616994
0,0,0,0,0,0,0,0,0,0,0,0,0.3234670786222313,-0.533822921970239,-0.3145430105379832,-1.4607202602291416,3.259010655762035,3.258610577417681,-1.0666379769608945,-0.4563552446788841,-2.1375076577076504,-0.5969877001032472,3.259110577000448,3.25896580922196,100617840
0,0,0,0,0,0,0,0,0,0,0,0,0.5171042105083716,-0.5119877710327829,-0.9557529396716284,-0.4765637250618607,3.25869200929308,3.2584996412396,-1.1274872574194976,-0.30047496562897746,-2.73424476793346,-0.9235444693022333,3.2593308757937995,3.259350151938218,100618686
0,0,0,0,0,0,0,0,0,0,0,0,0.7262012036086564,-0.7295823966958995,-0.3138061897523629,0.30414215375687526,3.2589901994455097,3.258788783405874,0.08374068543203896,-0.6732283917937745,-2.0380494401513864,0.3913671006401897,3.2589123080864315,3.2591459821636652,100619532
0,0,0,0,0,0,0,0,0,0,0,0,0.12862066371687217,-0.548144310491599,-0.2689155899185645,-0.12490469514187516,3.258816320755043,3.2590669106324803,-0.23254229218271877,-0.8028919342627446,-2.326329294005548,-0.9934256068975457,3.259179026982668,3.259344644468384,100620378
0,0,0,0,0,0,0,0,0,0,0,0,0.68512846054178,-0.31042106275809556,-0.547260361583276,-1.4112773431870154,3.2588359902901636,3.2586337874691234,-0.3114812507010997,-1.044510930122248,-2.9098173987647766,-0.6937594525527301,3.259727807012535,3.2593914579619714,100621224
0,0,0,0,0,0,0,0,0,0,0,0,0.3726845827918747,-0.3348990124343648,-1.9384130166069289,2.157439191036128,3.2589186023376704,3.2587313483633213,0.04633080319533386,-0.6079845437985114,-2.555894405352402,-0.5954806203223013,3.2591526698056064,3.2590492080508717,100622070
0,0,0,0,0,0,0,0,0,0,0,0,0.31204655314046775,-0.6694054209477212,-0.7494934737078516,-0.3869835480431971,3.2586408685017663,3.2585625837519863,-0.08307742870776995,-0.6270340951721781,-2.786894999372363,-0.23973504778564544,3.259376902505982,3.2589622687056385,100622916
0,0,0,0,0,0,0,0,0,0,0,0,0.5115633024648788,-1.139702432120136,-1.128313771285268,-1.288255809337593,3.2588647078114397,3.2587392161773696,1.0595258664519627,-0.12774497601329993,-2.459923596373033,-0.20582909653533654,3.2593013714911185,3.2591333936611884,100624160
0,0,0,0,0,0,0,0,0,0,0,0,-0.25656705576980776,-0.7464966233368663,-1.401127469674047,-1.527014854790551,3.259048421269467,3.258520490946828,0.9096263062508471,-0.09720054831511357,-1.8847431164673705,-0.4151160973448869,3.2592994045376065,3.2588757227511076,100625403
0,0,0,0,0,0,0,0,0,0,0,0,0.10952193850540382,-0.8332408467818316,-1.549316173710367,-2.0947083228478816,3.2585114429606725,3.2585665176590104,0.119728853670222,0.38548079555997794,-2.297902488458453,0.12106598866772517,3.2595673036059503,3.2592238735227435,100626646
0,0,0,0,0,0,0,0,0,0,0,0,-0.5807339764516325,-1.173572978207228,-0.45742054670101956,-1.9182867548807567,3.258588940929048,3.2587832759360404,0.03147361653728682,0.30346473496731935,-2.0637453274423274,-0.41725102868688446,3.2591404746938313,3.259372575208255,100627889
0,0,0,0,0,0,0,0,0,0,0,0,-0.03767581435153655,-1.0285620842650036,-1.0938743822424866,-1.2669104298246419,3.2588595937323084,3.258913094867837,0.18305452860051735,0.11343027513388099,-2.027420810153581,-0.2362940593116354,3.2593143533842985,3.259318680682025,100629132
0,0,0,0,0,0,0,0,0,0,0,0,0.1442815475799498,-0.9597033691052638,-1.3605850172740241,-0.11211556340641537,3.258695943200104,3.2588108132852094,0.8431605867338879,0.6833715776648017,-1.2325422444989973,0.5035318378844068,3.2595094751726954,3.2594780039165023,100630375
0,0,0,0,0,0,0,0,0,0,0,0,-0.044197445416145974,-1.1550183123371973,-0.5482705889070736,-0.5870058044202094,3.2589174221655632,3.258498854458195,1.1849392157720584,1.2149564999290108,-1.0503350794714783,0.48669668277462513,3.2591353606147004,3.259009475589928,100631618
0,0,0,0,0,0,0,0,0,0,0,0,0.7092716347302955,-0.10673515876950725,-1.2929375520870152,1.009657300669825,3.2586904357302706,3.2591247390657347,0.6198224568155356,0.46046342378418725,-1.3748788684462152,0.3859697802030778,3.259348184984706,3.2591778468105606,100632861
0,0,0,0,0,0,0,0,0,0,0,0,0.7235257534415427,-1.450763934941761,1.9637823896148667,-2.0166478057679895,3.2586507032693266,3.258877296313917,0.2863042457466418,0.649798828339437,-2.080475053843862,0.5022206666732629,3.259185714624609,3.2590067218550107,100634104
0,0,0,0,0,0,0,0,0,0,0,0,0.5566010304213799,-0.4873831495503365,-0.08890669213613177,-0.13528155509013595,3.2587628196195144,3.2585440943889727,-0.11834608535123887,0.35119050159341114,-1.6540839855771048,-0.08144092338573018,3.2588949988955256,3.25888752447218,100635347
0,0,0,0,0,0,0,0,0,0,0,0,0.33858154279965674,-0.10681501708209717,-0.32144387023971915,-0.6317028560284205,3.259008688808523,3.258699090325724,1.2331232825664618,0.09965845342379252,-1.9155605573130317,0.4713477577385613,3.2593308757937995,3.259061009771944,100636590
0,0,0,0,0,0,0,0,0,0,0,0,0.6984140513436855,-0.7413380910561193,-0.20441367678805314,-0.3544694130980268,3.258575565645166,3.258745117037906,0.5027659061868078,-0.9725184646270828,-0.24774408909607992,-1.4521592917632211,3.2591668318708935,3.2593603800964805,100637833
0,0,0,0,0,0,0,0,0,0,0,0,0.43929192296170266,-0.43235683826885674,0.1339833657721717,-0.18561471529182377,3.2589414189984103,3.258858020169499,-0.6047178274056706,-0.16518200220847154,-2.0398767399640967,-0.25207492733894915,3.25935054532892,3.2589492868124585,100639076
0,0,0,0,0,0,0,0,0,0,0,0,0.8049769049855356,-0.23585031459931308,-0.29512563885756005,-0.14462576444456152,3.258990986226914,3.258666045506721,-0.3740858404738712,0.18807930804244374,-2.1037563090033897,-0.2674970230456618,3.259370608254743,3.2592482637462927,100640319
0,0,0,0,0,0,0,0,0,0,0,0,1.1771473261293561,-0.7462900932180992,-0.2286721144523757,-0.19510723294105922,3.2587219069864637,3.258668799241638,-0.057675797662234025,-0.13244324117222323,-2.135905770767423,0.266099305879987,3.259107429874829,3.2592179726622073,100641562
0,0,0,0,0,0,0,0,0,0,0,0,0.5923232665447314,-0.3998120188488983,-0.17790661786873552,-0.5497568189807914,3.258784456108147,3.258765573354432,0.3496039568905779,-0.17872447713905298,-2.1325222173359655,0.9231849102002274,3.259405226636556,3.2592813085652956,100642805
0,0,0,0,0,0,0,0,0,0,0,0,0.22772128912464248,-0.2391410278250012,-0.508112085832606,0.1298484360991044,3.258906013835193,3.258944959514732,0.39210903550494136,-0.027424052646643236,-2.411598695707166,0.46871833428363013,3.2594858717305506,3.2591318200983785,100643613
0,0,0,0,0,0,0,0,0,0,0,0,1.9607922268858224,-1.5433665327270665,0.310216892983543,-1.574599000763774,3.258634574250528,3.2588698218905714,0.9341829340675991,-0.6778184745095341,-1.7713765706272804,0.8319890775667521,3.259018916966786,3.259014589669059,100644421
0,0,0,0,0,0,0,0,0,0,0,0,1.2318420090487014,-0.050957077855715495,-1.3280866179569504,-0.720326700249517,3.2589968870874504,3.258731741754024,0.18563556499905168,-0.7221819308020986,-2.4559668726881587,-0.09615098192107462,3.2591432284287487,3.259205777550432,100645229
0,0,0,0,0,0,0,0,0,0,0,0,-0.22577951261752993,-0.6251824051359183,-1.2377200529241625,-1.0018976690647206,3.258641261892469,3.2588013719083513,-0.20290659700710736,-0.18210999752402277,-2.3039186124704614,-0.09282289657865721,3.2595692705594623,3.259387130664245,100646037
0,0,0,0,0,0,0,0,0,0,0,0,-0.09885514960946436,-0.8325988331554929,-0.9460212404753255,-0.7596221041228896,3.258588154147643,3.258813960410828,0.6918884863720519,-1.1549935287229451,-1.2017366053744083,-0.9012706877315864,3.259038193111204,3.2590090821992255,100646845
0,0,0,0,0,0,0,0,0,0,0,0,0.12016591074060329,-0.7638864593370508,-0.5145082252631455,-0.7684737883178935,3.2588694284998687,3.2589162419934556,0.12155339974801536,1.2553207463408405,-2.1247515707911933,-0.24875077590355585,3.2591758798570485,3.259193189047955,100647653
0,0,0,0,0,0,0,0,0,0,0,0,0.14855888468729073,-0.7974269506248176,-0.8514745058386929,-0.9692851864439471,3.259117658033092,3.2588808368302384,0.8284784589384149,0.03401728081909189,-1.6126021161797184,-0.21128503218710804,3.259287602816534,3.259297044193392,100648461
0,0,0,0,0,0,0,0,0,0,0,0,-0.2722082700977647,-0.8372219606902552,-0.6217799689507447,-0.6542929237238077,3.25856809122182,3.258192403101015,0.7466661747296064,0.06587287972842212,-1.293784522269311,-0.5173154613155676,3.259156210321928,3.2590279649529412,100649269
0,0,0,0,0,0,0,0,0,0,0,0,0.686341677468023,-1.1393735574929187,-0.34203708672965605,-0.2930481425581148,3.2584437797598573,3.25831868151649,0.2487523494663655,0.2722007956744189,-1.8877954349273962,-0.34208980108377945,3.259374148771065,3.2591373275682125,100650077
0,0,0,0,0,0,0,0,0,0,0,0,0.9571384617255284,-0.7841232638506012,-0.7424671223720457,0.2669864019139292,3.258491773425552,3.2588568399973914,0.4872340544741219,0.5638547615831806,-1.4885038719777908,0.18943532579366276,3.258877296313917,3.259166045089488,100650885
0,0,0,0,0,0,0,0,0,0,0,0,0.7076355227989581,-1.0426466515835109,0.04155346650522548,-0.1304168856640918,3.2587333153168334,3.2587533782426568,1.0475069937118284,1.0056045896535621,-1.3201574349591056,0.06827059605963183,3.2589776109430324,3.2591298531448665,100651693
0,0,0,0,0,0,0,0,0,0,0,0,-1.4028953674906928,1.1857669098099362,-2.1240497617780876,0.8424965432282141,3.259085006604791,3.2585653374869032,0.6126371756359548,0.10353728574958869,-1.1098979723331897,-0.5067285307322181,3.259594840955119,3.259166438480191,100652501
0,0,0,0,0,0,0,0,0,0,0,0,0.3463356669349273,-1.1364652200299763,-1.1063409336019674,-0.5321337022940757,3.258756525368276,3.2588021586897558,0.14736061660773953,0.23703245366006537,-1.476826068976649,-0.20265758069247966,3.259048421269467,3.259066517241778,100653309
0,0,0,0,0,0,0,0,0,0,0,0,0.3741645186143539,-0.552477902469385,-0.7143861072523722,-0.6342095415841986,3.2586286733899916,3.2586007426501205,0.5315632857755763,0.23268351944488516,-0.7019699099028002,-0.8185480974373933,3.2591589640568452,3.259222693350636,100654117
0,0,0,0,0,0,0,0,0,0,0,0,0.9707706297362602,-0.767051680928669,-0.4443796449160152,-0.5368968769188972,3.259305698788845,3.2589398454356004,-0.8402227449682647,0.5178064129121795,-1.7235103635204272,-0.687802337146084,3.2591251324564374,3.2594209622646524,100654925
0,0,0,0,0,0,0,0,0,0,0,0,0.653950673812708,-0.5577603528213921,-0.1825781324598947,-0.5899235832600096,3.2587026308420457,3.2586617182089945,0.4957977766749592,0.45898584830592254,-0.9438505105794085,0.2564081259260328,3.2592344950717083,3.2591963361735745,100655732
0,0,0,0,0,0,0,0,0,0,0,0,-0.19588221262481362,-0.7145072715887154,-0.6864400251436263,-0.1292697583758543,3.258642048673874,3.258496494113981,0.49056882745848024,0.3254430801204538,-1.166401859092934,0.5225066450246149,3.2592203330064216,3.258933551184362,100656789
0,0,0,0,0,0,0,0,0,0,0,0,0.6797228788999174,-0.5895018684270225,-0.783613036109571,-0.8658966023798707,3.258735675661048,3.258557469672855,0.2828782061193235,-0.015837122897758828,-1.6436614923073638,-0.1559652514416279,3.258966596003365,3.2591290663634616,100657846
0,0,0,0,0,0,0,0,0,0,0,0,0.4742167561312623,-0.46540047709947546,-0.6768491598187875,-0.6494211732651202,3.2588446448856168,3.2587396095680723,-0.6080254564315625,-0.30430383733556715,-2.8192926906696187,-0.8616137578026959,3.258953614110185,3.259114510907472,100658902
0,0,0,0,0,0,0,0,0,0,0,0,0.36698356473249966,-1.0062194593214344,-0.6597862314923085,-0.889978801009512,3.2588167141457456,3.258736069051751,-0.8049698239528923,-1.3058852202755473,-2.428334716359939,-0.1590348790925597,3.259384376929328,3.2592695068442232,100659959
0,0,0,0,0,0,0,0,0,0,0,0,0.18331810037113433,-1.2681216797973727,0.6628743485062537,-2.9674275001797077,3.2588273356947104,3.258472890671836,0.12188974879857883,-0.32236401109266416,-2.268561442918949,-0.16845776658746797,3.259466988976835,3.2592073511132416,100661015
0,0,0,0,0,0,0,0,0,0,0,0,0.5606057477719483,1.5620679333290974,-2.05119616403534,-0.7105017674567422,3.2589071940073007,3.258837563852973,0.19892863022430302,0.2797377681419573,-2.457827217319872,0.4098155510205687,3.2592427562764588,3.258979184505842,100662072
0,0,0,0,0,0,0,0,0,0,0,0,0.3991829871157392,-0.6182213566567131,-1.147367256565959,-0.7195788645242291,3.258856446606689,3.258638508157552,0.40650949555748644,-0.5692119561686463,-1.8243190913580762,0.18468080576429435,3.2594819378235265,3.259664077718744,100663128
0,0,0,0,0,0,0,0,0,0,0,0,0.441707341874521,-0.9863225443747692,-0.4231971291538631,-0.10245113402022528,3.259002001166582,3.2589728902546033,-0.656744534581248,-0.9678174457332426,-2.2802522278132713,-1.5504164875050173,3.2592537712161267,3.2596027087691675,100664185
0,0,0,0,0,0,0,0,0,0,0,0,0.999341022889736,-0.8162428279212508,-1.132534066740759,0.031864646895485745,3.2588001917362437,3.25869200929308,1.1485478220639016,-1.8297317540325826,-2.8624433234266426,0.9943626635506944,3.2590688775859924,3.2586825679162224,100665242
0,0,0,0,0,0,0,0,0,0,0,0,0.4150275844368439,-0.9698241317062535,-0.9829897383439229,-0.8383698747598975,3.258174307128704,3.2581652591425487,0.3559210247899323,-0.2855029088858257,-1.3542014663459616,-0.07432920626750067,3.2593257617146683,3.2592494439184003,100666298
0,0,0,0,0,0,0,0,0,0,0,0,0.4683552346653026,-0.9233788518165174,-0.4836073855885727,-0.2930154911298145,3.258619625403836,3.2588757227511076,0.37167592903088675,-0.016575123855486373,-1.712939955346579,0.03323010602356267,3.258974463817413,3.2593651007849096,100667355
0,0,0,0,0,0,0,0,0,0,0,0,0.20500179588816117,-0.6127178207299495,0.018677403769183608,-0.3884292588745664,3.2590669106324803,3.2586593578647802,0.822365560813613,0.48805860138638035,-1.436647109585656,-0.0569118329181472,3.2593572329708613,3.2589532207194827,100668411
0,0,0,0,0,0,0,0,0,0,0,0,0.5074138173358222,-1.0895525919857731,-0.7168023129465952,-0.6033338789145802,3.2589500735938635,3.258590121101155,0.8545433467082199,0.13642671542486134,-1.672126456752593,0.029981092212330362,3.2595350455683523,3.2592097114574563,100669468
0,0,0,0,0,0,0,0,0,0,0,0,0.2567322798648214,-1.2893057691223344,-1.0765801401829886,-0.4131534711305464,3.2588332365552466,3.258818287708555,0.4453001791596626,-0.47643980699060046,-1.6318727531281414,0.3222739246218114,3.2587923239221954,3.259080679307065,100670524
0,0,0,0,0,0,0,0,0,0,0,0,1.218410863686903,-1.1682429275802286,-0.2975355503005445,0.022911074508556666,3.2588151405829358,3.259115297688877,0.5170404812145806,0.1037135247842699,-1.2780618760659546,-0.1606816125728622,3.259388310836352,3.2592679332814134,100671581
0,0,0,0,0,0,0,0,0,0,0,0,0.10000188350699943,0.004076707849110108,-0.6286741410105396,0.04508336127798095,3.2586408685017663,3.258405227471021,0.305851042968159,0.3375599071454891,-1.7443722658601122,0.6646099882853017,3.2593143533842985,3.2593316625752045,100672637
0,0,0,0,0,0,0,0,0,0,0,0,0.4978355405134607,-0.3591393541263764,-0.6448550873822078,-0.16920363535924376,3.2587242673306784,3.2585704515660345,-0.054368562027044536,0.3331303278363142,-1.464482255516321,0.4941648118692412,3.2589563678451023,3.258736462442453,100673881
0,0,0,0,0,0,0,0,0,0,0,0,0.33394622015311953,-0.7267983706949198,-1.0799597597074222,-0.3328522006097079,3.2584189961456054,3.2586255262643724,0.3190776251647025,1.8373493715941156,-2.7637998180150767,0.5549247926383963,3.2590342592041797,3.25886313424863,100675124
0,0,0,0,0,0,0,0,0,0,0,0,0.5368115111364735,-0.5520990672229608,-1.2225811985231874,-0.5123119249715715,3.258631033734206,3.258835596899461,-1.3803269362839383,1.491695844137173,-1.3697998010873556,-0.5196813129998819,3.2591613244010595,3.259501607358647,100676367
0,0,0,0,0,0,0,0,0,0,0,0,0.5699617588474464,-0.3613864018185618,-0.6158389825628975,-0.46420850327116286,3.259107036484126,3.258929617277338,0.07355186623953178,0.15641253667027194,-1.3497412025619986,-0.5973846313219823,3.259175093075644,3.2587018440606403,100677610
0,0,0,0,0,0,0,0,0,0,0,0,1.0607091856848223,-0.5573669621189787,-0.49959832425097517,-1.251684242687731,3.2586558173484583,3.258738429395965,-0.9976938960187312,-0.4966514344991963,-2.271381660864551,-1.1891382681296192,3.259351332110325,3.259173126122132,100678853
0,0,0,0,0,0,0,0,0,0,0,0,0.9225224402573633,-0.24884479628143266,-0.32045173888823253,-0.8260488779603097,3.258391852187139,3.2584760377974553,-1.167235453991348,-0.9694476568040438,-2.2508061469562226,-1.0421580603311134,3.259294683849178,3.2590169500132737,100680096
0,0,0,0,0,0,0,0,0,0,0,0,0.32561695881092056,-0.20930470339115897,-0.8577062079556236,-0.547489708362783,3.2589622687056385,3.2590952347630537,-0.8054926401963997,-0.6676505050242548,-2.271706994975447,-1.0355471295770562,3.259273047360545,3.258957548017209,100681339
0,0,0,0,0,0,0,0,0,0,0,0,0.4906860578877995,-0.1978483793554758,-0.4002746463149364,-0.12045190578125783,3.2587789486383136,3.2589473198589465,-0.6857999784707998,-0.5961556787676429,-1.9053355461759025,-0.6798523044410114,3.259501607358647,3.259107429874829,100682582
0,0,0,0,0,0,0,0,0,0,0,0,0.44006021500351605,-1.1709065760262698,0.31396944689386447,-2.1219242718129485,3.258841104369295,3.25834149817723,0.2636091427337101,-0.9130637542085355,-2.1103373420640636,-0.045689182959697594,3.259166438480191,3.2591829608896923,100683825
0,0,0,0,0,0,0,0,0,0,0,0,0.255534798566675,-0.3818238355903429,-0.047719865765555584,-0.3094415199090862,3.258594448398882,3.2584056208617236,0.7322912850727182,-0.5966092582475254,-1.7267959626669838,-0.29727787939046374,3.2590488146601695,3.2586762736649835,100685068
0,0,0,0,0,0,0,0,0,0,0,0,0.2934840194563889,0.08795586680839858,-0.79224874880895,-0.7210953856820328,3.258424503615439,3.2589245031982066,0.6101717961039299,0.15761434526614487,-1.710797942971938,1.7144989627002434,3.2591330002704857,3.2590732048837188,100686311
0,0,0,0,0,0,0,0,0,0,0,0,0.447142821209767,-0.8882860408170272,-0.5543429677895269,-0.8441558652109938,3.259054322130003,3.2587187598608445,1.4233540443604045,-0.5265078218588617,0.4238053111797942,0.09710102046740299,3.259293110286368,3.259602315378465,100687554
0,0,0,0,0,0,0,0,0,0,0,0,0.2306795872067913,-0.6348511618198348,-0.5859550578540633,-0.9648512798370456,3.2590118359341425,3.2588371704622707,0.7313711442197732,0.5944951766127557,-1.4062057502515017,0.4947466367181106,3.259033079032073,3.2590704511488022,100688797
0,0,0,0,0,0,0,0,0,0,0,0,-0.018842234473494826,-0.5398724841919522,-0.7298943555229134,-0.9189343236606506,3.2586703728044473,3.2586522768321364,0.967509420813253,0.2351697486841379,-1.5827295998012543,0.16001953602070046,3.259413881232009,3.2590063284643085,100690040
0,0,0,0,0,0,0,0,0,0,0,0,0.16047744279830967,-1.0344302933729044,-0.782547340696733,-0.9089740644662456,3.2588340233366515,3.258784062717445,0.25235108761204333,-0.338743619769051,-1.6455194765948624,0.09453296596204827,3.259049994832276,3.259160144228952,100691283
0,0,0,0,0,0,0,0,0,0,0,0,0.35382739947168823,-1.125929036847238,-0.6014042975192424,0.40641272144469276,3.2590822528698746,3.258968562956877,0.6746139138476746,0.6487299858009797,-0.9772316786326979,0.0748465150411743,3.25902285087381,3.259205777550432,100692526
0,0,0,0,0,0,0,0,0,0,0,0,0.5595176290890729,-0.679650101619971,-0.5309240258841545,0.3954111570609995,3.2586306403435037,3.2585094760071605,0.31654772955748195,-0.44026399138736616,-1.5632610873295172,-0.3179281375322506,3.2590724181023143,3.2590944479816493,100693334
0,0,0,0,0,0,0,0,0,0,0,0,1.2934965602751445,-2.3616420104076874,1.1612826658824285,-2.965015621783211,3.258599562478013,3.2584717104997285,0.4325409451175863,0.28015672924002755,-1.0408405948687307,-0.3283431563786454,3.259107036484126,3.259094054590947,100694142
0,0,0,0,0,0,0,0,0,0,0,0,0.12233349351090116,0.6479070124515309,-1.506085682640753,-0.713659908015717,3.258820254662067,3.259003968120094,0.19854782802436685,0.3044851904493798,-1.65741010396601,-0.3387463735039679,3.2588635276393325,3.2589681695661747,100694950
0,0,0,0,0,0,0,0,0,0,0,0,0.5826198914790024,-0.7507228196528934,-0.7696315371550962,-0.41267235430149485,3.2585956285709887,3.258684928260437,0.49675961694236,0.11552154010791063,-1.8292502438128284,-0.09287167702575648,3.2591589640568452,3.259136540786807,100695758
0,0,0,0,0,0,0,0,0,0,0,0,0.5856187088034999,-0.8885146008151293,-0.595984553812093,-0.5801191067837604,3.2591593574475475,3.2587120722189034,1.1782850120407358,-1.307767988177298,-1.3578761288972054,0.5881552920526614,3.2592392157601373,3.2593296956216924,100696566
0,0,0,0,0,0,0,0,0,0,0,0,0.7568262764008373,-0.5834637145356791,-0.583650968510028,-0.8772738548843687,3.258883590565156,3.258740002958775,-1.9993858217460896,1.5249192625187946,-3.201857280952606,0.8022420528223577,3.259429223469403,3.259179026982668,100697374
0,0,0,0,0,0,0,0,0,0,0,0,0.5426447084718595,-0.24536092822085953,-0.4087829004267335,-0.5769503446758204,3.2586215923573483,3.2587761949033967,-0.4623422577789137,-0.5643547611659481,-1.6400946188085817,-0.855701488936125,3.2594685625396442,3.258961481924233,100698182
0,0,0,0,0,0,0,0,0,0,0,0,0.6646512943090551,-0.1806001640081601,-0.09267891558157391,-0.2816614486767588,3.2588808368302384,3.2587911437500887,-0.0862780554626054,-0.6518082680473647,-1.9355172676464638,-0.5998173594257068,3.2592183660529095,3.2592278074297676,100698990
0,0,0,0,0,0,0,0,0,0,0,0,0.48024114134802115,-0.048150235193995854,-0.3729430404833603,-0.5292100225937393,3.258826548913306,3.258426470568951,-0.5343402307439126,-0.04328438559584445,-1.5438185386441396,-0.7337519447507792,3.2589193891190753,3.2592132519737778,100699798
0,0,0,0,0,0,0,0,0,0,0,0,0.8503706515277207,-1.0146246450691994,-0.4655975658413846,-0.045252519280018715,3.2585952351802865,3.2585838268499163,-0.47328442016654254,-0.2998286247049123,-1.7803797102427137,-0.6628999189019106,3.2593698214733386,3.2589563678451023,100700606
0,0,0,0,0,0,0,0,0,0,0,0,0.5550074046859031,-0.9556164330978909,0.09792674755176872,-0.3305827296474849,3.258843858104212,3.258786029670957,-0.4928268900903332,-0.16672291358982486,-2.0552429741910663,-1.0155144948380583,3.259360773487183,3.259097201716566,100701414
0,0,0,0,0,0,0,0,0,0,0,0,-0.7988848565679617,-0.3058439619355156,-1.8116621388986276,-1.104747307866491,3.2588198612713644,3.258824975350496,-0.5337340156714935,-0.4516888441668563,-1.4043273096474775,-0.19584444711738191,3.2590913008560296,3.2590279649529412,100702222
0,0,0,0,0,0,0,0,0,0,0,0,0.8837360839529137,-1.6121233596948812,-1.4749861806614613,-1.6172350784820413,3.2591156910795798,3.2587777684662065,0.4294201766753407,-0.06656485397396732,-1.4663414199759266,0.10655813295342122,3.2590558956928124,3.2588721822347857,100703030
0,0,0,0,0,0,0,0,0,0,0,0,-0.05892717348661106,-1.0210691715561355,-1.630866459711368,-0.6354089898358571,3.2590079020271183,3.2582140395896477,1.4405043054228193,0.14836612324310816,-1.272304209745432,0.23908949364298504,3.2593375634357407,3.2591967295642768,100703838
0,0,0,0,0,0,0,0,0,0,0,0,-0.18003446817808963,-0.6354742926924577,-1.107530940476768,-0.49985166786332935,3.258979971287247,3.258799404954839,0.5275743040531045,0.6179707667792756,-1.2541417544057074,-1.029662398059654,3.259269113453521,3.259371001645446,100704646
0,0,0,0,0,0,0,0,0,0,0,0,0.6942507975400445,-0.8186794899319995,-1.4734901158201832,-1.0000428319028414,3.2588013719083513,3.2587911437500887,2.936332718888845,-0.5914157141942638,-0.7999320626177862,0.4645110207213188,3.259110183609746,3.258922929635397,100705454
0,0,0,0,0,0,0,0,0,0,0,0,1.1982299206530953,-0.7149521964731451,-1.2367715879406436,-0.44372189566158,3.258797438001327,3.2585948417895843,0.15473472532447877,-0.5567756958932514,-1.7142397182273528,-0.8806263304503357,3.2591900419223356,3.25887296901619,100706688
0,0,0,0,0,0,0,0,0,0,0,0,0.43422033002618904,-0.6464699562156148,-0.4801160431046537,-0.7578022787335251,3.2585256050259597,3.2585220645096378,0.07672495564519831,-0.35744226663616496,-1.4545723503318249,-0.5563173957249398,3.2588682483277616,3.2593985389946147,100707922
0,0,0,0,0,0,0,0,0,0,0,0,-0.11304081833849172,-0.6819274403962422,-0.7915072073349008,0.19396167921563137,3.2587057779676645,3.2589469264682442,0.3140221612479879,-0.13311672605475497,-1.0247304588234971,0.05491498171269675,3.2590732048837188,3.25934071056136,100709156
0,0,0,0,0,0,0,0,0,0,0,0,-0.06891733037439947,-0.5818307497299611,-0.16532558981485243,-0.25684242926149714,3.258769900652158,3.2585637639240934,0.45402401137638226,-0.03285009060503132,-1.4400794434642128,-0.2469734367100521,3.2594410251904753,3.2593304824030973,100710389
0,0,0,0,0,0,0,0,0,0,0,0,0.33324087062369234,-0.009295822298028743,-1.627704385245369,0.3113215340759199,3.2590452741438476,3.258735675661048,0.36981361744566166,-0.05752276867899521,-1.166083999405384,0.19221030380848692,3.259263212592985,3.259208137894647,100711623
0,0,0,0,0,0,0,0,0,0,0,0,1.193295621072724,-1.4393367218180564,-1.677382156536836,-0.020714380826280215,3.2587266276748927,3.2586086104641687,0.903448498660147,0.792189740203588,-0.0997103809965111,0.11347590845536093,3.2592069577225393,3.25910113562359,100712857
0,0,0,0,0,0,0,0,0,0,0,0,0.1560997910618533,-0.5004614234520702,-0.6924667707045996,-0.9654889661656578,3.258837563852973,3.2587942908757075,1.003783190701388,0.43463457043583037,-0.2518290581499407,-0.5361266179235719,3.2592518042626146,3.2591798137640726,100714091
0,0,0,0,0,0,0,0,0,0,0,0,0.15973196741723625,-0.3812553860253555,-0.5555837220649388,-0.7922613373114272,3.2589854787570807,3.2588352035087587,0.09020566823550083,0.05656918961634511,-0.911602701139772,-0.5967013116718902,3.2589783977244373,3.2592478703555905,100715324
0,0,0,0,0,0,0,0,0,0,0,0,0.29642618851973873,-0.5501930892697678,-0.8616196586632321,-0.3867239101796043,3.2587301681912146,3.258609397245573,-1.453198236608295,1.8767108651054936,-2.5057248956829183,0.6038645629721359,3.2589461396868393,3.2588871310814773,100716558
0,0,0,0,0,0,0,0,0,0,0,0,0.4320952334517518,-0.3755264372261091,-0.7776689025961044,-0.42216329838792066,3.2585920880546673,3.2584866593464206,0.2705288851891619,-0.7430037072901376,-0.5070495375453874,-0.06877570972153065,3.259385557101435,3.2591609310103573,100717792
0,0,0,0,0,0,0,0,0,0,0,0,0.6708944047563559,-0.5125514999093412,-0.10893814670302232,0.24041561370082062,3.259130639926271,3.2589492868124585,-0.578864583833764,0.4058737761823864,-1.3113104714525308,-0.019363870544895,3.25913693417751,3.2593163203378106,100719026
0,0,0,0,0,0,0,0,0,0,0,0,0.8999968886371718,-0.5958995814203716,-0.5100935948006624,-1.1676858863456114,3.2588890980349894,3.258686108432544,-0.14863834960917827,0.5545070117124332,-1.8402687239967255,0.3173341175716063,3.2591373275682125,3.259110577000448,100720259
0,0,0,0,0,0,0,0,0,0,0,0,0.8745925038567189,-0.7929308882869348,0.2073798426842502,-0.9649122553959196,3.258699483716426,3.2585657308776055,0.4872277602228832,0.20617528035346033,-1.2448341303866064,0.35138208286548644,3.2593690346919337,3.259357626361564,100721493
0,0,0,0,0,0,0,0,0,0,0,0,0.5681863866074546,-0.35463817770936223,-0.40742530911270486,-0.4918485274134311,3.2591027091863998,3.258882017002346,0.6122850909572948,-0.5345054548389262,-1.2981413242985396,0.4340806763268323,3.259585792968964,3.2592746209233545,100722727
0,0,0,0,0,0,0,0,0,0,0,0,1.8345728200164817,-0.3036633972720381,-0.8516837896923768,-0.20313791074012644,3.258969743128984,3.2589776109430324,0.8834626774147364,-0.770104392779397,-1.9654421049883488,-0.4967183109186066,3.2591211985494133,3.258907980788705,100723961
0,0,0,0,0,0,0,0,0,0,0,0,-2.2445217304851686,0.5181289932881585,-1.7289863620980217,-0.4822741844980936,3.258926076761016,3.2587423633029893,0.5899554479069051,-1.07691452228004,-1.7091405879426702,-0.13989170073171864,3.2591019224049953,3.259279735002486,100725194
0,0,0,0,0,0,0,0,0,0,0,0,0.1998172998210549,-0.7971594449471765,-0.5950089448701078,-0.9038493637859062,3.258769900652158,3.2587431500843937,0.4761750550478762,-0.8686656795341586,-1.1081292877351387,-0.16883856878740414,3.25893158423085,3.2590853999954934,100726260
0,0,0,0,0,0,0,0,0,0,0,0,0.5167950054162748,-0.9744362443013481,-0.33814330555716815,-0.904125130668298,3.258518917384018,3.2587077449211765,0.22979917881479012,0.40667393287109527,-2.62566067286261,0.7692625366762323,3.258972103473199,3.258863921030035,100727326
0,0,0,0,0,0,0,0,0,0,0,0,0.14597902846086364,-0.9572891303645528,-0.11968912120927826,-1.5230089572678753,3.2586396883296596,3.2588969658490377,0.5450495058357127,-1.238374261662276,0.3251334816376545,-0.35879985795019365,3.2591459821636652,3.2590724181023143,100728391
0,0,0,0,0,0,0,0,0,0,0,0,0.5338563601799441,-1.094640707330788,-1.0496179282209785,-1.2810555793113205,3.2590712379302067,3.2586845348697344,0.8051283604059648,0.07939096443545395,-1.0919329991260764,0.11741256921441187,3.2591939758293598,3.2593529056731345,100729457
0,0,0,0,0,0,0,0,0,0,0,0,0.8571829983214138,-1.4437230281499658,-1.3205075526842536,-0.006138861911161174,3.2590649436789683,3.258743936865799,0.6223334696690404,0.3333403984714029,-1.0054334646980123,0.16569813081003795,3.2593599867057783,3.258994526743236,100730523
0,0,0,0,0,0,0,0,0,0,0,0,0.7596697043978815,-1.4031136993305322,-1.1319361128730907,-0.4608941866033299,3.2587462972100134,3.258462269122871,0.6867500170171281,0.13001562714763013,-1.2585024903419602,-0.07663880308136976,3.259581465671237,3.2592034172062174,100731588
0,0,0,0,0,0,0,0,0,0,0,0,0.039281241808085655,-0.5997347473782,-0.9078536877457724,-0.20580352613967967,3.2591888617502285,3.258883590565156,0.47299881851659037,0.38126364723010625,-1.2030721668091018,-0.027737978427169137,3.259110183609746,3.2590566824742178,100732654
0,0,0,0,0,0,0,0,0,0,0,0,0.6024231794384932,-0.10628748015016079,-0.4320586481164274,-0.029901627290442857,3.258944959514732,3.258699090325724,0.6178460619266106,0.6155872125133529,-1.1709655846316318,0.24826297143256323,3.2588576267787963,3.259138114349617,100733719
0,0,0,0,0,0,0,0,0,0,0,0,-0.13643182950399274,-1.0491069136985438,0.19222957995290516,-1.3464363272710236,3.258789963577981,3.258324582377026,0.7159124631777362,0.050455898100840814,-0.9385948107951654,0.8754843205790901,3.259473676618776,3.259185714624609,100734785
0,0,0,0,0,0,0,0,0,0,0,0,-0.146992796300983,-0.06739018766763062,-0.3350009006262899,-0.5015436412744094,3.258756918758978,3.25870656474907,1.226626828506807,-0.11404199767613384,-0.6204703713024105,0.10104043496137081,3.259210104848159,3.2589272569331236,100735851
0,0,0,0,0,0,0,0,0,0,0,0,0.37254532248322036,-0.3694336020271303,-0.4118780984733222,-0.5464035566334197,3.2589748572081154,3.259245510011376,0.8256547004764915,-1.0653468686755738,-1.1479888138757721,-0.018307223118212597,3.259118051423794,3.2589433859519223,100736916
0,0,0,0,0,0,0,0,0,0,0,0,0.46584697554671467,-0.7390650795775747,-0.5564539022986772,-0.7980064151294726,3.258969743128984,3.2586558173484583,0.9575440475397166,-0.08892400132703797,-1.7725052085525046,0.30847928625098303,3.259180600545478,3.259105069530614,100737982
0,0,0,0,0,0,0,0,0,0,0,0,0.2448259168655773,-0.4700177037737016,-0.8475630220845963,-1.3893985258815915,3.258981938240759,3.2586845348697344,-0.418352522653642,1.7430587343047539,-1.0305353320283095,-0.43694062673337775,3.259210498238861,3.2593214344169414,100739048
0,0,0,0,0,0,0,0,0,0,0,0,0.7388317988910434,-0.4143312828935722,-0.741684274874243,-0.404153872031435,3.258922142853992,3.2585641573147957,-0.027857175810000398,-0.30842460494334756,-1.6179730794397686,-0.9262399823951699,3.259149129289285,3.259077138790743,100740113
0,0,0,0,0,0,0,0,0,0,0,0,0.2705367530032102,-0.08882171974441049,-0.1634805874205336,-0.3378588840793233,3.2587140391724154,3.2586483429251123,-1.4749314993538258,-1.102983343956869,-2.386678968272086,-1.118600561451979,3.25935211889173,3.2591247390657347,100741179
0,0,0,0,0,0,0,0,0,0,0,0,0.42821522095384845,-1.2736641614036752,0.7055635339693467,-1.2380076215276266,3.2590468477066574,3.2587321351447267,-1.285814820029118,-0.6294074212798383,-1.2284309182680746,0.15193457030470017,3.2590519617857883,3.259262819202282,100742244
0,0,0,0,0,0,0,0,0,0,0,0,0.09225720074858673,-0.33274165782232973,-0.705430567911931,-0.2968931432835034,3.25888752447218,3.2588568399973914,0.4744378417060186,0.23372679158768553,-0.9786384437845282,0.06130167976637837,3.258867068155654,3.258907587398003,100743301
0,0,0,0,0,0,0,0,0,0,0,0,0.9924204936528794,-0.48495710908855305,1.2167314787783001,-1.060357887787567,3.2585389803098415,3.258386344717305,0.12331775704833949,-0.7142787115906133,-1.9600774359795374,-0.9251715332474152,3.259355659408052,3.2590539287393003,100744358
0,0,0,0,0,0,0,0,0,0,0,0,0.21687629424050978,1.066183610699607,-1.4145692365848106,-0.1385958717579689,3.2587219069864637,3.258966596003365,-0.09460928375831648,-1.106215048577195,-2.1882456169421216,-0.6942905300009882,3.259403259683044,3.25944338553469,100745414
0,0,0,0,0,0,0,0,0,0,0,0,0.6712382282302651,-0.8129285112534178,0.1516328396359491,-1.0951556557602473,3.2588717888440835,3.2589858721477833,-0.30905442345791145,-0.95739298550999,-2.300437104754103,-0.5971761342497032,3.2589823316314614,3.259315926947108,100746471
0,0,0,0,0,0,0,0,0,0,0,0,0.40784190986656066,-0.6472606715274657,-0.38127544895117865,-0.6252909809697843,3.258826548913306,3.2587596724938956,0.11555025762918682,-0.8626078561076946,-1.5036159758110017,0.961658127505556,3.259294683849178,3.259315926947108,100747528
0,0,0,0,0,0,0,0,0,0,0,0,0.6542657797653413,-0.44022701266133935,-0.8933182946822994,-0.528363839192848,3.2588178943178523,3.258622379138753,-0.42997053026801707,0.3739162890811311,-1.0232501296103154,-1.0424133708969796,3.2594638418512156,3.259186501406014,100748584
0,0,0,0,0,0,0,0,0,0,0,0,0.465872939333074,-0.8416775037857894,-0.8202266955645913,-0.894321834364156,3.2588206480527697,3.258963055487043,1.2061803467488703,0.2881972418066551,-1.4424409678508003,0.598964881773577,3.259315140165703,3.2591668318708935,100749641
0,0,0,0,0,0,0,0,0,0,0,0,0.9378056690461241,-0.9184583209107304,-1.2876126155391472,-0.9881466970618602,3.258600349259418,3.258649129706517,1.0190042637591674,-0.40011256934554207,-1.6512472452220015,-0.06927570930429808,3.259258098513853,3.2592077445039442,100750697
0,0,0,0,0,0,0,0,0,0,0,0,-0.3346370142265575,-0.7380454108769191,-1.102497899830091,-0.7770898314821518,3.2586526702228387,3.258037800554967,0.4837324838319401,-0.18924177756807536,-1.456191939853661,0.10674617370917483,3.25887611614181,3.259520490112363,100751754
0,0,0,0,0,0,0,0,0,0,0,0,0.4883800015902521,-1.064666696151101,-0.8742758243412762,0.02698306166923781,3.25859090788256,3.2587596724938956,0.6700871670350035,-0.010715175952336306,-1.0653240520148337,0.08341495793044065,3.259123558893628,3.2591975163456812,100752811
0,0,0,0,0,0,0,0,0,0,0,0,0.8571873256191404,-1.0826666811307286,-0.6095954787248943,-0.6875906929481855,3.2585181306026136,3.2587057779676645,0.9065802820420601,0.41160626549795454,-1.1014109613193226,0.6549152678150257,3.2594020795109366,3.2588828037837505,100753867
0,0,0,0,0,0,0,0,0,0,0,0,-0.3051264172943136,1.847511833609561,-2.2109761251182705,0.5826230386046217,3.258932371012255,3.2589284371052307,0.5351329130092756,0.33345054786807865,-0.9733378974602099,-0.08531896893012153,3.2594540070836553,3.259375722333875,100754924
0,0,0,0,0,0,0,0,0,0,0,0,1.5226781156871456,-1.1777783248160272,0.3176885625944808,-0.6024703863227828,3.2590692709766946,3.2587447236472036,0.37090409647275163,0.3335721055951244,-1.3642116861595732,-0.20866780384395167,3.259024031045917,3.2589012931467645,100755981
0,0,0,0,0,0,0,0,0,0,0,0,0.5558496541797703,-0.285504089057933,-0.3426456621462896,-0.7270603689027272,3.258605069947847,3.2582152197617553,0.6809585190961979,-0.3495138704197252,-0.7496606647563773,-0.4098277461323435,3.259526390972899,3.2590700577580995,100757037
0,0,0,0,0,0,0,0,0,0,0,0,-0.025885895000206827,-0.4343918483724413,-0.35056540376727624,-0.6328857818705775,3.258957548017209,3.2590594362091343,-0.08183077357182188,-2.1267059358007834,0.0301876223310974,-1.2471818860986097,3.2595657300431404,3.2592215131785287,100758094
0,0,0,0,0,0,0,0,0,0,0,0,0.7503907979000566,-0.6862555249041944,-0.09992635249213605,-0.14083033094767702,3.2590102623713326,3.258959514970721,-1.3605861974461313,1.5546415036489372,-2.9700718724813306,-0.0007073164829393009,3.259442598753285,3.259233314899601,100759150
0,0,0,0,0,0,0,0,0,0,0,0,0.6784545872753366,-0.7459309275067958,-0.33190884970532053,-0.36882896051752095,3.2585082958350533,3.2584363053365113,-0.6351080459485109,-0.5416388084457884,-1.124048629289702,-1.0172591826032618,3.2591849278432043,3.258891458379204,100760131
0,0,0,0,0,0,0,0,0,0,0,0,0.4859681231937555,-1.0184550903385985,-1.950103408110548,-1.5441651158529657,3.2586593578647802,3.2586758802742812,0.2867633326963583,-0.39402445483499227,-1.2145029204491282,-0.18052935368172568,3.259088153730411,3.2590834330419813,100761111
0,0,0,0,0,0,0,0,0,0,0,0,0.27582667777856323,-0.3820630171374103,-1.2415410568167038,0.314278258595259,3.258835596899461,3.2587262342841905,0.2529675308427251,0.7359144134419457,-1.0416926791301584,0.2891016470315036,3.2588938187234184,3.2592514108719124,100762092
0,0,0,0,0,0,0,0,0,0,0,0,0.30391005324245135,-0.17490268646510676,-0.8085060129768863,-0.6923373451635056,3.258976037380223,3.2582490513621627,-0.15497233330873647,-0.20980470297392642,-2.160008819104292,-0.37110433234028006,3.25937493555247,3.259138507740319,100763072
0,0,0,0,0,0,0,0,0,0,0,0,0.04665062983639596,0.13035630349592012,-0.13391727613416624,-0.7519537391607449,3.258767933698646,3.2587647865730265,0.09825798252320081,-0.5943740122764125,-2.241044550066537,-0.331266049297577,3.2593674611291243,3.2590633701161584,100764052
0,0,0,0,0,0,0,0,0,0,0,0,1.3308340586226055,-0.42946502321541585,-1.0911336292187725,1.4338607232404617,3.2585496018588067,3.2587710808242654,-0.07870253070623048,-0.38329354325455944,-1.9441852383834406,-0.5335778395626354,3.259147555726475,3.25946620219543,100765033
0,0,0,0,0,0,0,0,0,0,0,0,0.013365055723792997,-0.634196559691019,-0.40091587315987026,-1.010655332881848,3.2589386652634937,3.258938271872791,0.40796150064009434,-0.9535912577618667,-2.2430638245420247,-0.1713668908318151,3.259134573833295,3.259313959993596,100766013
0,0,0,0,0,0,0,0,0,0,0,0,0.24801474189934036,-0.5020947816484906,-0.5301085269580516,-0.2797224259045632,3.2590802859163626,3.258710498656094,0.43303897774684164,-1.1594691347443027,-1.401335966746326,0.013636101917755833,3.2594304036415105,3.2587116788282007,100766993
0,0,0,0,0,0,0,0,0,0,0,0,0.28887938128464,-1.0719707813228108,-0.7293266927393308,-0.7130521193804883,3.2586306403435037,3.2584768245788602,0.7684985719321455,1.5766406985092996,-2.317777766916486,1.495551466411527,3.258952433938078,3.2588898848163943,100767974
0,0,0,0,0,0,0,0,0,0,0,0,0.49159833092669614,-1.1776056262976677,-0.7314840473513659,-0.05998814821102002,3.2587368558331553,3.2585948417895843,1.5541265552194778,-1.1573318430580906,-1.359799022650602,0.5425050547725028,3.2591227721122227,3.259003968120094,100768954
0,0,0,0,0,0,0,0,0,0,0,0,0.03511995495795667,-1.0906560529060427,-0.21573034712437952,-0.29129755393237516,3.2589862655384856,3.2590578626463245,0.5064378150031346,-0.6846634727315274,-1.0870608552766865,-0.3560028500560343,3.259411127497092,3.259376115724577,100769935
0,0,0,0,0,0,0,0,0,0,0,0,-0.06454754645199137,-1.262961573953816,-0.8787612651301938,-1.10788499210894,3.2589732836453056,3.25863654120404,-0.2711067761310072,-0.20609699560368008,-1.4550031131509675,-0.7791051720506158,3.259437878064856,3.259178633591966,100770915
0,0,0,0,0,0,0,0,0,0,0,0,0.31123184099576956,-0.782801471090492,-0.8624906256783754,-1.2777920100440991,3.2588607739044155,3.2586487363158145,0.07821236589102337,-0.18052856690032087,-1.2506354630750969,-0.25194392823504547,3.2592679332814134,3.2589162419934556,100771895
0,0,0,0,0,0,0,0,0,0,0,0,0.6163547177737615,-1.5446714096869716,-0.28930503002465124,-0.6910851825577238,3.2588053058153754,3.2589036534909788,0.13565094895970212,-0.03638824658253748,-0.8218675281843576,0.03498384177492163,3.2590444873624427,3.2591648649173814,100772876
0,0,0,0,0,0,0,0,0,0,0,0,0.8874056324250259,-0.6090018521549526,1.057261509568871,-0.6531056705839241,3.2589252899796115,3.2587761949033967,0.2843860726816741,-0.1721717682089529,-1.3219808008647917,-0.05883984075067529,3.259263605983687,3.2593273352774776,100773856
0,0,0,0,0,0,0,0,0,0,0,0,-0.7084911475767073,2.3001432418994,-0.9246058374173447,0.05990396260070355,3.258915061821349,3.2586192320131335,0.39341076533922736,-0.25658475835141636,-0.9696274363550468,0.31576252171546476,3.259130639926271,3.259048027878764,100774836
0,0,0,0,0,0,0,0,0,0,0,0,1.169930573693582,-0.6453369909926642,-0.7120544805591679,-0.6175258418948462,3.258472497281134,3.2588879178628822,0.5335396806645013,-0.49643900351989306,-0.8427435925893297,0.005290711556757873,3.2591739129035364,3.2588296960389247,100775907
0,0,0,0,0,0,0,0,0,0,0,0,0.4544441526465598,-0.7478443798833346,-1.2506480515775742,-0.7523644390540646,3.258811600066614,3.258721513595761,0.4394134806887484,0.20137119309558785,-1.4726085272560747,0.01842012624980524,3.25931789390062,3.258966989394067,100776978
0,0,0,0,0,0,0,0,0,0,0,0,0.42161687870226844,-0.744382935092799,-1.548168653031427,-1.0477666315754213,3.25885172591826,3.2590318988599654,0.27418859889371383,-1.0029704455102022,-1.406320226945904,0.03153419870545849,3.2590366195483944,3.2591821741082874,100778048
0,0,0,0,0,0,0,0,0,0,0,0,0.7634155706662619,-0.22221972015139105,-0.8025233271745833,-0.5415369202538634,3.2586609314275896,3.258383590982388,-1.024391356038017,-0.36008781910989507,-2.2897935259096056,-0.7084463010366321,3.259663290937339,3.258913488258539,100779119
0,0,0,0,0,0,0,0,0,0,0,0,0.2886390195654654,-0.6620462610776735,-0.14614346577447243,-0.26107688678227503,3.258986658929188,3.258625919655075,-0.9087934981338379,-0.581894479023752,-1.648575728961912,-0.7203825617292596,3.259490199028277,3.2591668318708935,100780189
0,0,0,0,0,0,0,0,0,0,0,0,0.5055849439603023,-0.4837977866885408,0.22205292249356776,-0.04071279057416803,3.2589756439895203,3.2588808368302384,0.16544478719768368,-0.18642785387371227,-0.7289454971486923,0.486347351830882,3.259018916966786,3.2594551872557624,100781260
0,0,0,0,0,0,0,0,0,0,0,0,0.6749172180792353,-0.3067314513601603,-0.31483766017409087,-0.8312711395348477,3.258690042339568,3.2586255262643724,0.8472081836710195,-0.05094448935323827,-0.6038138155715246,0.3212747122376814,3.2592958640212846,3.259082646260577,100782330
0,0,0,0,0,0,0,0,0,0,0,0,0.5456325108566893,0.07456445390754389,-0.848625570371815,-0.29536796753024663,3.2588025520804584,3.2587718676056703,1.0577807852960568,0.37296231662777857,0.05747752874821767,0.5089877735361782,3.2593163203378106,3.2595315050520304,100783401
0,0,0,0,0,0,0,0,0,0,0,0,0.8080182085058937,-0.23628619149758714,-0.6300482547340696,-0.37684980354902786,3.258769507261456,3.2585972021337986,0.3330351272863301,-0.8356326622525051,-1.4763532133523478,-0.1819062211401726,3.258935124747172,3.2587282012377026,100784472
0,0,0,0,0,0,0,0,0,0,0,0,1.1953467601951073,-0.4937667004783988,-1.045783155653853,-0.38243083744416684,3.2588273356947104,3.2587266276748927,-0.26129521862211447,-0.7607192707919205,-1.5291348372858569,-0.4137632267192872,3.2589815448500565,3.258747083991418,100785542
0,0,0,0,0,0,0,0,0,0,0,0,0.3614650799590445,-0.8440087370882913,-0.6693570338913242,-0.1592555712766136,3.258786029670957,3.258832449773842,0.16128743425457884,-0.9664374311491765,-1.7470056232220676,-0.4355484170375368,3.2592848490816175,3.2593230079797513,100786613
0,0,0,0,0,0,0,0,0,0,0,0,0.15403055596715878,-0.6035046104794276,-0.9585574219891336,-1.0118111147655384,3.2584846923929085,3.258892638551311,0.4285429154089588,0.2878235206393624,-2.1697180950305572,2.0503814518906416,3.259307665742357,3.2593084525237623,100787683
0,0,0,0,0,0,0,0,0,0,0,0,-0.14191215537931387,-0.4771990510462583,-1.0565892048584467,-1.2190918229927805,3.258640475111064,3.258679420790603,1.2868639930324546,-0.2733443824463347,0.5306179679176769,-0.19963988061426646,3.259469742711752,3.2590027879479866,100788754
0,0,0,0,0,0,0,0,0,0,0,0,0.2813034631375626,-0.8593025874260172,-1.6205997491597828,-0.4854075414428164,3.25905864942773,3.258814353801531,0.6867181523702325,0.35443676166972654,-0.6553137725965704,-0.01602673721632209,3.2590759586186357,3.259132606879783,100789824
0,0,0,0,0,0,0,0,0,0,0,0,0.9639169769188137,-0.7264360578579971,-0.36578096935522186,0.0902426469615277,3.258560616798474,3.258824975350496,0.28450959736223186,-0.12157936353437465,-1.3592541765277595,-0.3381429121664658,3.2590299319064533,3.259344644468384,100790895
0,0,0,0,0,0,0,0,0,0,0,0,0.4342238705425108,-1.1244510679782709,0.3551948255532772,-0.3920995941280835,3.258952433938078,3.2587647865730265,-0.16257814914919724,-0.6176729700175487,-1.3209158922333588,-0.5673512181462309,3.2590999554514832,3.2590558956928124,100791965
0,0,0,0,0,0,0,0,0,0,0,0,0.1686111889614092,-1.097067141183274,0.27118663444359714,-0.009900070416935731,3.258679420790603,3.2586306403435037,0.05549838012437583,-0.4405134010926963,-0.8335111061943895,0.000626671388944553,3.259311599649381,3.259193189047955,100793022
0,0,0,0,0,0,0,0,0,0,0,0,0.2105324757733912,-0.528188780330274,0.36404100227844743,-2.273852154475707,3.2585987756966084,3.2585602234077715,0.17794477676686962,-0.0030086520920577157,-0.39664522369447036,0.25250529676738936,3.259195549392169,3.258957154626507,100794078
