0,0,0,0,0,0,0,0,0,0,0,0,0.14207541252081543,0.18375712439502767,0.09788819526293221,0.34828609803749294,3.258834416727354,3.2587211202050588,0.42573292562161985,1.2016244890242205,0.01753342360656543,-0.3825276115569605,3.2594001125574246,3.258966596003365,10240969
0,0,0,0,0,0,0,0,0,0,0,0,0.9561927504769265,-0.28339944880002127,0.4410700489366113,0.021087708602870535,3.258590121101155,3.2583997200011874,0.577688345633548,0.8958784813736059,-0.2664627988890169,-0.09560416884471998,3.2590621899440513,3.2593316625752045,10242052
0,0,0,0,0,0,0,0,0,0,0,0,-0.6488082705507601,0.3213274265918048,-0.7016705395782636,0.9529940906756031,3.2587561319775737,3.258611757589788,1.4111829294184361,1.6370324655809958,0.8957742328374664,0.4155456799919224,3.258979971287247,3.2589681695661747,10243136
0,0,0,0,0,0,0,0,0,0,0,0,0.47049173957010976,-0.5596584629605368,-0.7319600501012861,-0.6750191062711604,3.2588147471922335,3.2590169500132737,1.8295594489049254,2.0612779809567905,0.829423383405612,0.6233019975783822,3.2594953131074087,3.25920381059692,10244219
0,0,0,0,0,0,0,0,0,0,0,0,0.9324921408286262,-0.19778583023379206,0.1505738318650522,-0.8760374279066834,3.258979184505842,3.258518523993316,2.0401049065714965,1.4078568110295309,0.4451546245997696,0.17434643201189423,3.259403259683044,3.2591097902190436,10245303
0,0,0,0,0,0,0,0,0,0,0,0,0.6403861690027914,-0.35573495098769076,-0.3694359623713448,-0.2926653734046666,3.2590271781715368,3.258902079928169,0.8223832633952216,2.3368473812159753,-0.8327896276461634,0.5010743261664302,3.2589748572081154,3.259254164606829,10246386
0,0,0,0,0,0,0,0,0,0,0,0,0.1706804240561037,-0.624497905313719,-0.162847228389648,0.12317889013038755,3.2586924026837827,3.258913094867837,1.0614798380708501,0.18973233577398488,0.29536206666971043,-0.6881111488474785,3.2597057771332,3.2591117571725556,10247470
0,0,0,0,0,0,0,0,0,0,0,0,0.6733759133071795,-0.8558285541330044,-0.2190017842056494,0.10226466682728133,3.2590122293248447,3.258617658450324,0.48404404926825156,0.5152194756531091,0.09010732055989748,-0.7083758841009001,3.2595885467038803,3.259149129289285,10248553
0,0,0,0,0,0,0,0,0,0,0,0,0.536200181984923,-0.6314573802301144,-0.7491107045544033,-0.31502019346001064,3.258731741754024,3.258594448398882,0.6754258722574558,0.8613513662041862,0.22627321794905875,-0.5185070417531779,3.259030718687858,3.2586377213761475,10249636
0,0,0,0,0,0,0,0,0,0,0,0,-0.5314397610950184,-0.5451824718931284,-0.9387085007081628,-0.5003906131256358,3.258509869397863,3.2586416552831716,0.9171939631931737,1.087426708629931,0.47947206252480296,0.009810377336785475,3.259195156001467,3.2593662809570167,10250720
0,0,0,0,0,0,0,0,0,0,0,0,0.4038659100372684,-0.20103051674729785,-0.7421280195865654,-0.38237733630863857,3.258963842268448,3.259123558893628,0.9201440000705718,1.000499165117641,0.23183143518345772,0.13354119462265904,3.2591034959678047,3.2590889405118153,10251803
0,0,0,0,0,0,0,0,0,0,0,0,0.5367273255261571,-0.49508888662921025,-0.3396755623430684,-1.0356753749460428,3.2587140391724154,3.2586467693623025,0.6532732550231521,0.5762316198625111,-0.065898450124079,-0.37858386976526615,3.259195942782872,3.2590362261576917,10252887
0,0,0,0,0,0,0,0,0,0,0,0,2.3117451204949764,-2.2330060044534212,0.6453822309234417,-1.0173008820177174,3.2588588069509035,3.2586778472277933,0.14363441987447975,0.482713208521987,-0.07589608143521326,-0.17388105081093916,3.2594559740371674,3.2594685625396442,10253970
0,0,0,0,0,0,0,0,0,0,0,0,0.3804225779083464,-0.2118853463989909,-0.280611095501315,0.085614405347634,3.2589146684306463,3.2587872098430646,0.8659638721899834,0.4946475022611025,1.0072859415156772,-0.5255833537081902,3.259289569770046,3.2593379568264433,10255054
0,0,0,0,0,0,0,0,0,0,0,0,0.8434741191237114,-0.39158818621494607,0.010164822359659953,-0.2537739817826726,3.2588674615463566,3.258791537140791,1.1087449441844157,1.49943305247224,0.8798096513521255,-1.4958618516757312,3.259378082678089,3.259048421269467,10256137
0,0,0,0,0,0,0,0,0,0,0,0,0.8939429991177319,-0.5273752483576832,-0.24799113845719556,-0.1754026860478742,3.2592175792715046,3.258769507261456,0.5045432453803117,0.10445585303972399,-0.4321066417821218,-1.9377654955107564,3.2590118359341425,3.2595964145179286,10257220
0,0,0,0,0,0,0,0,0,0,0,0,1.5084216366316838,-0.498020434143595,-0.2691370688840233,-0.2722845878940329,3.2587160061259275,3.2586916159023778,-0.39757598609638045,1.3121483936486713,0.12934214226509835,-0.3281873736604897,3.259064550288266,3.259090514074625,10258215
0,0,0,0,0,0,0,0,0,0,0,0,1.2509926618328882,-0.24694825970509762,-0.6052209741140573,-0.31543364708824717,3.258669979413745,3.2585378001377343,-0.04683513007582785,0.6962952490204869,0.3078620562388964,-1.0876194700741135,3.259195156001467,3.2590031813386893,10259210
0,0,0,0,0,0,0,0,0,0,0,0,0.760287721191373,-0.2655139405147959,0.28442108445418884,-0.3379025504472912,3.2586798141813054,3.258629066780694,-0.19873547538941802,0.7230383423612526,0.16170678874335154,-0.2701406085658799,3.2592868160351296,3.2594780039165023,10260204
0,0,0,0,0,0,0,0,0,0,0,0,0.37584980438349297,0.04894567119427576,-0.5916128029361728,-0.35357405585933394,3.258841497759997,3.2589469264682442,0.5261820943572634,0.9319775857898694,0.6589679788312887,0.1418861915929546,3.2592053841597295,3.259156997103333,10261199
0,0,0,0,0,0,0,0,0,0,0,0,0.8669072230943707,-0.33836124400630524,-0.9526919666161497,-0.38631045655136775,3.259176273247751,3.258898539411847,0.6373464390452431,0.9356801790809844,0.6732693044268255,0.37783328030506136,3.259364707394207,3.2592403959322445,10262193
0,0,0,0,0,0,0,0,0,0,0,0,0.8420299818551519,0.2792161320705571,-2.5788758967966907,1.975895282732878,3.2591503094613916,3.2588694284998687,0.49353184622905805,0.9072049864774926,0.3364186807177878,-0.6261438520126166,3.2594870519026578,3.25935369245454,10263188
0,0,0,0,0,0,0,0,0,0,0,0,0.435613326503435,-0.1946933859221203,-0.9676478943405025,-0.7021245124488488,3.2586038897757397,3.2588942121141207,0.4049815660693128,0.32904260504753646,-0.015521230163720865,-0.8480177817365863,3.259051175004384,3.259077925572148,10264182
0,0,0,0,0,0,0,0,0,0,0,0,0.39061926491490184,-0.34968578215667984,-0.3611570550390547,-1.2872388943718545,3.258883983955858,3.2589662026126627,0.5638661699135507,0.9958787913177957,-0.03799485421119382,-0.031151036161307828,3.2594732832280733,3.2593273352774776,10265177
0,0,0,0,0,0,0,0,0,0,0,0,0.5304299271619233,-0.38733287898694024,-0.018327286044035676,-0.9427151850122433,3.2586396883296596,3.2586924026837827,1.1175517818393446,0.9979228494075357,-0.9424642017441036,0.9853276592883657,3.259077138790743,3.2589882324919976,10266172
0,0,0,0,0,0,0,0,0,0,0,0,-0.027224996951222054,-0.5187123916998376,-0.34446824127057085,-0.7561964578862735,3.2586951564186997,3.2583812306381734,-0.059892554270333555,2.139493100582731,-0.1096124183669589,-0.5784129713073934,3.258992166399022,3.2588407109785926,10267166
0,0,0,0,0,0,0,0,0,0,0,0,-0.1909955133194343,-0.37279433879784807,-0.8824508765281291,-1.428685275159511,3.259120018377306,3.2589673827847694,0.5433181933543912,0.5126836791853522,-0.07752275198969268,-0.7150206464553649,3.2592718671884375,3.25917115916862,10268161
0,0,0,0,0,0,0,0,0,0,0,0,-0.2168007632256464,-0.7448849016290785,-0.043031041983490226,-0.019835152606386255,3.2590578626463245,3.2587982247827316,0.3787770246001511,0.8809201933050386,-0.09904122341170589,-0.6642118768944593,3.2591963361735745,3.2592604588580674,10269155
0,0,0,0,0,0,0,0,0,0,0,0,0.23554189628862096,-0.6588952015513422,0.1970820542671745,-0.9770220013883115,3.2588615606858204,3.258655423957756,0.6652252513438762,1.1953231567529625,0.5843315344252031,-0.3313990153549927,3.259143621819451,3.259033472422775,10270150
0,0,0,0,0,0,0,0,0,0,0,0,0.1776210162187834,-0.3900220978286382,-0.4830806354380411,-1.2748691171251676,3.2587730477777774,3.258820254662067,0.9006514907659876,1.3220929172149796,0.3332688013635637,0.11280989799617504,3.2591318200983785,3.2592643927650915,10271144
0,0,0,0,0,0,0,0,0,0,0,0,0.5840876321897068,-1.017960598225665,-1.138547043627148,0.3382034943346374,3.2589709233010913,3.25852245790034,1.233371905490387,1.279080364594503,0.7965728994098782,0.4849783521864834,3.2592793416117836,3.2593635272221,10272139
0,0,0,0,0,0,0,0,0,0,0,0,-0.4882840142588632,-0.2084581265995653,-1.5800018286707196,2.0073279866371134,3.2588918517699064,3.2586888621674612,1.793932413331558,2.0787063692458116,1.7677078089365732,1.0253937155477661,3.2594630550698107,3.2592852424723198,10273133
0,0,0,0,0,0,0,0,0,0,0,0,1.2010513187708043,-0.38848748069852357,-0.2821185686729632,-0.5426388076113233,3.2586353610319327,3.258402867126806,1.4652981478331264,1.644185882113681,0.6419935634128526,0.16050812727309788,3.2594772171350974,3.2589756439895203,10274157
0,0,0,0,0,0,0,0,0,0,0,0,0.5152702230537203,-0.156759900660503,-1.2320827641585783,-0.8697939240686803,3.2589988540409625,3.2587223003771664,0.9928009024621132,1.2196445369296713,0.5744877188787125,0.5853582841585021,3.2588879178628822,3.2588513325275574,10275180
0,0,0,0,0,0,0,0,0,0,0,0,0.7443365149899143,-0.4011932136050717,-0.3709591711710895,-0.5267143519776287,3.258775408121992,3.258664471943911,0.639424722126093,0.7318892397748517,-0.3250917822231986,-0.18830786804054594,3.259060616381242,3.259206170941135,10276204
0,0,0,0,0,0,0,0,0,0,0,0,0.47763886185155646,-0.2744966238137035,-0.35094541918580757,-0.8992608546329562,3.2584669898113,3.2584402392435354,0.5773704859459979,0.1426588109324945,0.4888438092283975,-0.37029906157243986,3.2592907499421537,3.2592427562764588,10277227
0,0,0,0,0,0,0,0,0,0,0,0,0.9943665974577185,-0.25864494545995537,-0.9739999740123718,0.04875684365711733,3.25894299256122,3.258942599170518,0.1350946945064896,1.1892499910891043,0.23055448896342384,-0.6648826080420741,3.2589193891190753,3.259166438480191,10278251
0,0,0,0,0,0,0,0,0,0,0,0,0.8452868634804325,-0.4261097939145319,-0.7007484317718066,0.25102182042858845,3.258962662096341,3.2584402392435354,0.29376175329229276,1.6090305219925072,0.529047945624345,-0.799340009610654,3.2595739912478914,3.259204597378325,10279274
0,0,0,0,0,0,0,0,0,0,0,0,1.2867676123103633,-0.4728591648172336,-0.6421721627917483,-0.13458879406318594,3.258900112974657,3.2588084529409946,-0.4289481078324446,0.3804347730201212,-0.01985875604853106,-1.2359828395823047,3.259252984434722,3.2593214344169414,10280298
0,0,0,0,0,0,0,0,0,0,0,0,1.0810703016603354,-0.8108797324752488,-1.1013267757090062,-0.1320455231720833,3.259024817827322,3.259132606879783,-0.13548611825539092,-0.1196171307107366,-0.07796295618569328,-0.8607325626292899,3.2591231655029254,3.258922929635397,10281321
0,0,0,0,0,0,0,0,0,0,0,0,0.9202836537699286,-1.0102009666205605,0.015736021487238582,-1.372181781790469,3.2584315846480827,3.258383590982388,0.2935198180103085,0.13274143132465258,-0.4243123917952051,-0.9663603265715035,3.259267539890711,3.2593289088402875,10282345
0,0,0,0,0,0,0,0,0,0,0,0,0.8007487417159964,-2.249011105181111,-0.49812389589832967,-0.27126334563056775,3.258714432563118,3.2585051487094336,-0.06670490106402648,0.1735179511926116,-0.1375573203035975,-0.5927591434430055,3.2588776897046197,3.2589032601002765,10283368
0,0,0,0,0,0,0,0,0,0,0,0,0.4706376875207051,-0.18057577378461048,0.27936483375606935,-0.24287548576301166,3.2587219069864637,3.258790750359386,0.5937072150358218,-0.03815457083637367,0.13119815959908482,-0.1750793188904904,3.2592919301142604,3.2589968870874504,10284392
0,0,0,0,0,0,0,0,0,0,0,0,1.1193967842336634,-0.5270664366562887,-1.0707426155498763,-1.1469235118536367,3.259016556622571,3.2584697435462164,1.165908153761405,1.4660920102705968,0.8545173829218605,0.453030306462086,3.259376115724577,3.258896572458335,10285415
0,0,0,0,0,0,0,0,0,0,0,0,0.28376923606028986,-0.4502576887914763,-1.6778192136072174,-0.8427628687337481,3.2589764307709252,3.258936304919279,0.3713867868646129,1.3946967118616953,-0.9275503668249091,0.7500658571798631,3.2591314267076763,3.2589776109430324,10286439
0,0,0,0,0,0,0,0,0,0,0,0,-0.09915963401313233,-0.575777646991926,-1.530092350255531,-0.795335685650788,3.2587710808242654,3.258607823682764,0.9511105359924479,0.6593523215475465,0.5793315385975287,0.10410573531457606,3.2593906711805665,3.2589886258827,10287462
0,0,0,0,0,0,0,0,0,0,0,0,0.9492734014121773,-0.45940559618539767,-1.445418148686665,-2.0235789565538114,3.2589186023376704,3.2588890980349894,1.16787314031996,1.0006722570267028,0.8148274081739673,-0.16031143192189118,3.2589968870874504,3.2591558169312256,10288486
0,0,0,0,0,0,0,0,0,0,0,0,0.4318029441598587,-0.46823957779879305,-0.6091702233755855,-1.0187088273416551,3.258740002958775,3.258793504094303,0.03754363507552565,0.041307597316217096,0.2182126424566081,-0.7748616665436824,3.259343070905574,3.2591097902190436,10289509
0,0,0,0,0,0,0,0,0,0,0,0,0.1902787554596371,-0.4478281078133712,-0.19850376826569655,-0.26892542468612485,3.258566911049713,3.2586066435106567,0.4066377409264732,0.6597614478780565,0.5520062270171913,-0.38088953267211106,3.2593304824030973,3.2591554235405233,10290600
0,0,0,0,0,0,0,0,0,0,0,0,0.6168071170815369,-0.7205824042060857,-0.15247154861349446,-0.5412902642834502,3.258856446606689,3.258644015627386,0.4990865229471353,1.3605979991672037,0.6047713285411987,-0.38542100017321107,3.2591007422328877,3.2588678549370593,10291690
0,0,0,0,0,0,0,0,0,0,0,0,-0.8416476060924061,2.4345994632958723,-2.2354584020922665,1.4496329366723224,3.2585330794493053,3.2585916946639646,0.7525654617029979,1.2388400362539334,0.5830301979816196,-0.7381539867107851,3.2591672252615957,3.259536619131162,10292780
0,0,0,0,0,0,0,0,0,0,0,0,1.1716260876209839,-0.28745648711401073,-0.025039318208613184,0.1895800935721509,3.258909554351515,3.2586192320131335,0.38629708126748574,0.8204336190740608,0.4611373020574214,-0.8335052053338533,3.25923803558803,3.259028751734346,10293870
0,0,0,0,0,0,0,0,0,0,0,0,0.35117791309093394,-0.1853719932284347,0.02432924799075699,-1.8180984041808133,3.259033472422775,3.2589166353841583,1.104480195579552,1.0604436469606933,1.3527069750674932,0.21024412038852217,3.259205777550432,3.2588658879835473,10294960
0,0,0,0,0,0,0,0,0,0,0,0,0.6784054134375349,0.27767561407990626,0.22492034732345906,-0.5190739177553555,3.2588513325275574,3.2586019228222276,1.003709626640037,1.2992554067677744,2.1878530130211127,-1.4488536296908414,3.2594850849491457,3.25929507723988,10296050
0,0,0,0,0,0,0,0,0,0,0,0,0.1459451968604561,-0.13538265650065617,0.4972694512926878,0.029873696550571507,3.2588281224761153,3.258979184505842,0.8585645864682896,-0.36591865610106655,0.6894286143098609,-1.4348363321824469,3.2591298531448665,3.2591424416473433,10297140
0,0,0,0,0,0,0,0,0,0,0,0,0.9361809654451566,0.03485244928031555,0.27222479250726606,-0.11502586782286975,3.2590704511488022,3.2589842985849735,0.2374112889064895,0.48212784315679585,0.6296037232403424,-0.49663176496407563,3.2595503878057466,3.259262032420877,10298230
0,0,0,0,0,0,0,0,0,0,0,0,1.1975430604866815,-0.1927390209125305,-0.28166105528605645,0.28390180872700316,3.258617658450324,3.2582986185906666,0.21873270496519862,0.973801311707653,0.3483313379682705,-0.7501756131858364,3.258727807847,3.259033472422775,10299321
0,0,0,0,0,0,0,0,0,0,0,0,0.6839400272297891,-0.48515931190959355,-1.2588899801838374,-0.7507782877419338,3.2586672256788285,3.258679027399901,-0.011007071853527051,0.21775316211618925,-0.09864311202086352,-0.7669132074014195,3.259028751734346,3.259073598274421,10300411
0,0,0,0,0,0,0,0,0,0,0,0,0.08919898142802493,-0.05393701242649703,-2.1951358550948923,-0.8758765311093963,3.258618445231729,3.2585661242683077,0.020707299793636773,0.25070002683401427,-0.08782054040676837,-0.7586598704647863,3.259408373762175,3.259298617756202,10301501
0,0,0,0,0,0,0,0,0,0,0,0,0.18628741339295068,0.4038497810184694,-2.3016251446753913,-0.5689357958955521,3.2591821741082874,3.2585448811703777,0.448024016383173,0.8394280957493896,0.4598170828601221,-0.39465151961463923,3.2589583347986144,3.2589138816492413,10302591
0,0,0,0,0,0,0,0,0,0,0,0,0.9251137048141604,-0.7650469619091703,1.5675364574833461,-2.171453341418903,3.258837563852973,3.2591003488421855,0.7866043790107226,0.7063884742723077,0.07593148659843046,-0.3876515254558951,3.259193582438657,3.259058256037027,10303681
0,0,0,0,0,0,0,0,0,0,0,0,1.1995493530689898,-0.24426887563095992,1.0351222676184497,-0.538440148644465,3.2589064072258953,3.2585920880546673,0.9317348637264804,0.44559836931209196,-0.0811037875537619,0.026929167143007176,3.2592832755188077,3.259257705123151,10304771
0,0,0,0,0,0,0,0,0,0,0,0,0.46035012726189223,0.26358986658929184,0.1437768273087534,0.3079678783378456,3.258995313524641,3.2588969658490377,1.1791209672833642,0.2546492760955424,0.1716843571286627,0.5430719307746805,3.259115297688877,3.2591817807175847,10305861
0,0,0,0,0,0,0,0,0,0,0,0,-0.24506549180334708,-0.38736789075945505,-0.6344884555922098,-0.20893766986580728,3.2588584135602012,3.2589772175523297,-0.1995415329386631,3.1644116001619813,-2.147814100720179,0.9854826552251166,3.2595110487355052,3.2594610881162986,10306951
0,0,0,0,0,0,0,0,0,0,0,0,0.12526346746247619,-0.803022539975946,-0.6001773119184151,-0.06972417470504935,3.258769507261456,3.2585071156629457,0.843375771448108,0.4883654461342628,0.9917835941056721,-0.34713503684223135,3.259292323504963,3.259346611421896,10307946
0,0,0,0,0,0,0,0,0,0,0,0,-0.09896490561543769,-0.6611945702069485,-0.10919739117591276,0.03859674198588633,3.2588627408579276,3.2587482641635255,1.1509478987393258,0.8882545695608342,0.7647759157152075,0.4144784110162748,3.2591333936611884,3.2587758015126944,10308941
0,0,0,0,0,0,0,0,0,0,0,0,0.49550902789938783,-0.6293185149810927,-0.5688516102852357,-0.6522504391968773,3.258638508157552,3.258601529431525,1.066586049388176,1.1358617586924742,1.061829955795998,0.4843925934305898,3.2592407893229467,3.259163684745274,10309935
0,0,0,0,0,0,0,0,0,0,0,0,0.5445058398849774,-0.6158736009447099,-1.7658344824116805,-0.19296522056641824,3.2587789486383136,3.258959514970721,1.6118767037244681,1.5505301774180145,1.298006784678314,0.9073167094369781,3.259149129289285,3.2593942116968884,10310930
0,0,0,0,0,0,0,0,0,0,0,0,1.6361646456914718,-1.1239825396516965,-1.1728200284028085,-0.5639538960401888,3.2588942121141207,3.258882017002346,1.8564783878896698,2.088637517528238,1.7953895324932971,0.31192774914833893,3.259442205362583,3.259008688808523,10311924
0,0,0,0,0,0,0,0,0,0,0,0,1.0754664511044563,-1.0283602748346656,-0.22766228051928047,-0.6316611566139645,3.2587982247827316,3.258560616798474,1.667513950766796,2.069157596726131,2.00861673457822,0.7297684704981411,3.259403259683044,3.259235675243816,10312919
0,0,0,0,0,0,0,0,0,0,0,0,2.28793436145,-0.9515534939233653,-0.5544192855857951,0.791356145305174,3.259097988497971,3.259180600545478,1.722098090898763,1.994944440715842,1.7259596140336528,0.3721798625206783,3.2591184448144963,3.259378082678089,10313913
0,0,0,0,0,0,0,0,0,0,0,0,0.6886646495657741,-0.31397849488002,0.19006868482454833,-0.19456199342751423,3.2588973592397403,3.258854086262475,0.9263875039085749,0.8415229012397409,0.5924239745645492,-1.0631454543048686,3.2592935036770703,3.259228594211172,10314908
0,0,0,0,0,0,0,0,0,0,0,0,0.3771511408270765,-0.29655443388872554,0.0483658132989184,-0.5899007665992697,3.2589182089469677,3.2585838268499163,-0.206054116017117,1.0530770126672997,0.5722925987592458,-1.3304902351486962,3.259003574729392,3.259083826432684,10315903
0,0,0,0,0,0,0,0,0,0,0,0,0.14710923994889735,-0.017058601028752448,0.37025303486025746,-0.8243809013820769,3.258846611839129,3.2586577843019704,0.9494390188978933,1.3998902559149569,0.5277702126229062,-1.3445531659785706,3.258998067259558,3.2591833542803945,10316897
0,0,0,0,0,0,0,0,0,0,0,0,0.3492117463602717,0.11109864844067673,-0.16454864317758597,-0.9513882698283517,3.2586632917718044,3.2588973592397403,-0.40974474069413425,0.8793651198583984,0.3795996045588976,-1.4074170002242326,3.2594752501815853,3.259287209425832,10317892
0,0,0,0,0,0,0,0,0,0,0,0,0.6863652809101678,0.11766473265465886,-0.005595982741830676,-0.3712671960910792,3.25922505369485,3.2585228512910422,-0.7088389049576408,0.650900715696897,0.5331211129571334,-1.0076651701528037,3.25929665080269,3.2589512537659706,10318886
0,0,0,0,0,0,0,0,0,0,0,0,0.5300805962181802,-0.32017636539654315,0.24221734311787402,-0.17038577441999606,3.258822615006282,3.259002001166582,-0.49125922814121575,0.21324097075950751,0.37603469801362727,-0.8692478977737305,3.259037012939097,3.258550782030914,10319881
0,0,0,0,0,0,0,0,0,0,0,0,0.4687871776565525,0.03222932007662297,-0.4135602371168419,-0.4162974496242344,3.2588312696017345,3.258852119308963,-0.20537315671123943,0.06110773815008857,-0.390220760133357,-1.2345237534670535,3.259497673451623,3.25928366890951,10320875
0,0,0,0,0,0,0,0,0,0,0,0,0.540925591102313,-0.1321352162522335,-0.019860329611340714,-0.4523760977239725,3.258715612735225,3.2588399241971877,-0.4153470176872036,-0.03759477586683939,0.413464249785453,-0.8543454711849059,3.259230561164684,3.259343464296277,10321870
0,0,0,0,0,0,0,0,0,0,0,0,0.8435630254224569,-1.0333398143458146,0.984883521185341,-0.09213603641224341,3.258723480549273,3.258774621340587,0.4194504761040778,0.3845193486832796,0.30462287719522446,-0.4669980367419764,3.2594284366879984,3.2591424416473433,10322864
0,0,0,0,0,0,0,0,0,0,0,0,0.6698204481387673,-0.29322634854630814,-0.33878256544859,-0.7196811461068566,3.258561403579879,3.2584437797598573,0.8641200499677718,0.29771690341435714,0.6503940284721884,-0.7627668693979823,3.2589488934217563,3.2591302465355687,10323883
0,0,0,0,0,0,0,0,0,0,0,0,0.9218343999188423,-0.22513199152135746,-0.5181317470230754,0.45163888354764975,3.259179026982668,3.2585094760071605,0.9218442346864026,-0.019895341383855507,0.09515806378818319,-0.08300897872555002,3.2591487358985822,3.2588702152812736,10324901
0,0,0,0,0,0,0,0,0,0,0,0,0.8453022057178265,-0.6177130958691949,-1.1168609877659068,0.012316669501861274,3.258546061342485,3.258424503615439,1.5919896235453632,1.1480403480577883,0.5480144915598025,1.6754250377923294,3.2595716309036766,3.2594288300787007,10325919
0,0,0,0,0,0,0,0,0,0,0,0,0.20919770112010252,-0.12812735177604578,0.0613642288880621,0.28947654837090353,3.258443386369155,3.2587521980705496,1.4390145348327796,0.7009655834395389,0.4720617618634416,0.496559774465534,3.2593194674634294,3.259160144228952,10326937
0,0,0,0,0,0,0,0,0,0,0,0,0.639679639301257,-0.5398378658101399,-0.7558943338268201,-0.32722750034660103,3.258981938240759,3.2589551876729947,1.1918979039070492,1.110152496117651,0.8889599190902613,-0.1818499662697275,3.2591353606147004,3.2590354393762873,10327955
0,0,0,0,0,0,0,0,0,0,0,0,-0.6152835148910898,-0.8518773379179642,-0.515051104432476,-0.0393323825993994,3.2586408685017663,3.2584992478488974,0.16577248165279407,0.5658339102070225,0.49322972216960453,-0.7980252978831884,3.2594095539342822,3.259374148771065,10328973
0,0,0,0,0,0,0,0,0,0,0,0,0.3059607989741324,-0.45045831804970715,-0.40227425125530375,0.10308331287900362,3.258673913320769,3.2588418911506998,0.5488146482485112,0.7534989778398249,0.6334707538450662,-0.3690941058509476,3.2590842198233867,3.2589520405473755,10329991
0,0,0,0,0,0,0,0,0,0,0,0,0.25289278660926656,-0.8453151876110061,-0.2897790658210594,-0.3051091081034074,3.259090514074625,3.2589182089469677,0.5299637591795634,0.8695059620745137,0.8979858753664345,-0.3089855800849891,3.259411914278497,3.259200663471301,10331009
0,0,0,0,0,0,0,0,0,0,0,0,0.6697948777431104,-0.8605767799111341,-0.13694835149626153,-1.521854355556292,3.2584972808953854,3.2583477924284683,0.34881127462521483,0.2954812640525417,0.6789341305415786,-0.4265696676456532,3.259235675243816,3.259434730939237,10332028
0,0,0,0,0,0,0,0,0,0,0,0,1.1381469652827936,-1.691399847435933,-1.8497490465341861,-1.099357855243427,3.2588576267787963,3.2586597512554825,1.1228177097818506,1.448099893105017,1.29014447809988,0.66884287224327,3.2590134094969523,3.2585692713939274,10333046
0,0,0,0,0,0,0,0,0,0,0,0,0.7564702578151532,-0.8802931285253915,-1.7226511982263562,-0.30676961025829436,3.2587376426145602,3.2592203330064216,1.7316858090979825,2.007908237923173,1.4919838061313397,1.1963908191193127,3.258968956347579,3.2591605376196546,10334064
0,0,0,0,0,0,0,0,0,0,0,0,0.13672529896799315,-0.3981397149729389,-0.4451133185760162,-0.6937126390591428,3.258955581063697,3.2585181306026136,1.007799709773029,2.3388497398912595,0.8940873735055176,1.2015898706424082,3.2590141962783568,3.2593733619896605,10335082
0,0,0,0,0,0,0,0,0,0,0,0,0.3885523901644218,-0.29021887662635765,-1.5526485863505108,-0.9042691116653813,3.2587604592753,3.2588363836808663,1.4231597093534123,-1.0654157120484962,2.791105066669591,-1.599520301761663,3.2592643927650915,3.258970136519687,10336100
0,0,0,0,0,0,0,0,0,0,0,0,0.41948470109518776,-0.05303339398305344,0.15810372329994718,-0.6021304967558976,3.2587797354197185,3.258786816452362,0.07954910749782412,1.1002803564405865,1.0378838703493918,-0.2547688668690761,3.2593981456039125,3.2594953131074087,10337118
0,0,0,0,0,0,0,0,0,0,0,0,0.6228645471172984,-0.16618554189032814,0.2692066990383504,0.13086141715781893,3.259023637655215,3.2588666747649517,0.729060367233797,1.329148379462764,0.9204874301537788,-0.4341609280301247,3.259472889837371,3.2592258404762555,10338136
0,0,0,0,0,0,0,0,0,0,0,0,0.7157503862083417,-0.1587909768570634,0.7246532111946596,0.47586152265805276,3.2587986181734343,3.25881750092715,-0.035846940976016636,0.9499622285321031,0.5460581595967006,-0.9354826969483728,3.2595440935545077,3.259164078135976,10339154
0,0,0,0,0,0,0,0,0,0,0,0,0.5471757825822571,-0.07056642419891646,-0.05244134097592127,-0.542717485751806,3.2587246607213807,3.2585743854730587,0.3734662501175701,0.7190765045972471,0.5050042992835401,-0.5671155771154853,3.2590303252971555,3.2589976738688557,10340250
0,0,0,0,0,0,0,0,0,0,0,0,0.47135641233401443,-0.4078572521039548,-0.31394190954469553,-0.988435839228134,3.259197122954979,3.258904046881681,0.6261017592074584,0.7234218982961057,0.6075691232167629,-0.11619895889746652,3.2588064859874826,3.258999247431665,10341345
0,0,0,0,0,0,0,0,0,0,0,0,0.21655568081804286,1.0204963946934216,-2.0159141321079885,0.6368303104436767,3.2587203334236543,3.258498854458195,1.2619210555459326,1.2573773929330578,1.1857897264706763,0.209593058776028,3.259342677514872,3.259202630424813,10342440
0,0,0,0,0,0,0,0,0,0,0,0,-0.1798074817427971,-0.208184720061388,0.320535924498549,-0.7172771355244083,3.2589418123891125,3.2588308762110323,0.5320251264602097,-0.0802733397809672,0.23008753419965913,-0.8896711694802247,3.259235675243816,3.2590342592041797,10343536
0,0,0,0,0,0,0,0,0,0,0,0,0.9252332955876941,-0.27381999180555244,-0.2156512755931944,-0.6158307213581468,3.2591459821636652,3.258957154626507,0.01744137018220069,-0.09385869429811171,-0.1532858673674902,-0.5061766035767321,3.259079105744255,3.258981151459354,10344631
0,0,0,0,0,0,0,0,0,0,0,0,1.515010537506406,-0.5820018746855109,-0.8048899656403024,-0.32070036181215783,3.258727021065595,3.258559043235665,0.1436037353996915,-0.25372992202400235,0.8485807238317398,-0.9750507205785179,3.259561402745414,3.2591625045731667,10345726
0,0,0,0,0,0,0,0,0,0,0,0,-0.17911747445076398,-0.8669072230943707,-0.8532168332596818,-0.7014183761380167,3.2587683270893484,3.2587773750755042,-0.6032048467641885,1.587931798449969,0.7063632972673531,-0.8422593286346589,3.2591904353130383,3.2589862655384856,10346822
0,0,0,0,0,0,0,0,0,0,0,0,0.05689845763426514,-0.6034314398087788,-1.0951694244348318,-0.6511894644724684,3.259020097138893,3.2589414189984103,0.9319162168402929,1.1089876662478049,0.8816074468621548,-0.18362533850971918,3.2589654158312573,3.2591097902190436,10347917
0,0,0,0,0,0,0,0,0,0,0,0,0.5873826727131214,-0.765986772297236,-0.4416062404640007,0.08095233213333274,3.258678634009198,3.2584256837875465,1.5009952069515236,1.3148911136258974,1.5962004776239964,0.3576987573741385,3.259319074072727,3.2593678545198266,10349012
0,0,0,0,0,0,0,0,0,0,0,0,0.5809892870174989,-0.5476616200997376,-0.14075243958859915,-0.6178881547317688,3.2587616394474077,3.2587462972100134,1.4326187887929427,1.0763653488594709,1.1471567925401678,-0.26128971115228067,3.259136147396105,3.258828515866818,10350108
0,0,0,0,0,0,0,0,0,0,0,0,0.4819413759638519,-0.5234555033988361,-0.7349879783377621,-1.2586771558138319,3.2588997195839546,3.259172339340727,0.8576200553917951,0.665201254511029,1.125484505353511,0.025614455415541578,3.2591648649173814,3.259118051423794,10351203
0,0,0,0,0,0,0,0,0,0,0,0,0.014332796851729971,-0.37238049177890914,-1.2594033550504868,0.07780009243489412,3.258756525368276,3.258579892942892,1.2709147537845078,1.0931053034192684,1.171775576087901,0.24921694388591575,3.2591349672239978,3.259458727772084,10352298
0,0,0,0,0,0,0,0,0,0,0,0,1.5995124339476148,-1.5154440540604655,0.42021011355043814,0.28032982114908944,3.2587962578292196,3.258690042339568,0.712528516355576,0.9547859853250962,0.664806290245806,-0.03987329481521783,3.2592714737977353,3.2592667531093062,10353394
0,0,0,0,0,0,0,0,0,0,0,0,0.864419026901606,-0.45840166311283864,0.9637875513777198,-0.8256845981698748,3.258822615006282,3.2591589640568452,0.668429025224331,0.2272220763232799,0.6566170759936661,0.009977568385311173,3.259847004395366,3.25935054532892,10354489
0,0,0,0,0,0,0,0,0,0,0,0,0.1861996872663125,-0.4881805525041285,0.020560171670934158,-0.37326168695231515,3.2591451953822608,3.258861954076523,0.03347361486835657,0.9332238475351151,0.7699309074796328,-0.13125795498585163,3.2593344163101214,3.2591778468105606,10355584
0,0,0,0,0,0,0,0,0,0,0,0,0.23170948406570957,-0.45775256845385653,-0.6816017128946438,-0.5451710635627584,3.2588741491882978,3.2587053845769622,-0.1830443004422546,1.72483766375037,1.8268025668624122,-1.1080069432266881,3.2592954706305823,3.2591939758293598,10356679
0,0,0,0,0,0,0,0,0,0,0,0,0.40868337257902293,-0.3079922685613952,-0.4780051085955034,-0.47248111635221435,3.2587482641635255,3.258714432563118,1.6254703194463633,2.2111712469066673,1.9039000635027958,0.013824536064211851,3.259472889837371,3.259227414039065,10357674
0,0,0,0,0,0,0,0,0,0,0,0,0.5010314465798671,-0.6093393813776232,-0.4138383643434482,-0.4532592598508906,3.2588702152812736,3.258622379138753,0.489011787058328,1.0316328920880429,0.7130529061618931,-0.5897508847416502,3.259075171837231,3.2588056992060777,10358669
0,0,0,0,0,0,0,0,0,0,0,0,0.5051840788345431,-0.48766953798169344,-0.9698969089862,-0.2045568710037316,3.259126706019247,3.2588092397223996,-0.8273179563662952,0.6158763546796268,0.2257464677985272,-1.0915714730705586,3.2592348884624105,3.2594744634001804,10359664
0,0,0,0,0,0,0,0,0,0,0,0,1.1071316489138183,-0.34642142610805343,-0.8783592198323273,-0.07980441806369042,3.258835596899461,3.2588493655740454,-0.23609303666270215,0.5584566543646639,0.43185369156047004,-0.7600992870449169,3.2594933461538966,3.2593336295287165,10360658
0,0,0,0,0,0,0,0,0,0,0,0,0.8763769240828662,-0.7277621779158326,-1.5164259572536893,-0.6987311242498307,3.259105069530614,3.258527178588769,-0.0988944886797057,0.3878403529930535,0.1960525507989586,-0.83262282998834,3.259058256037027,3.259047634488062,10361653
0,0,0,0,0,0,0,0,0,0,0,0,0.822812846042257,-0.6078130254522592,0.011294640456991249,-0.16106084120998873,3.259033079032073,3.258548421686699,0.18649118977680082,-0.20234286813054894,-0.20257890255199698,-1.0914361466689284,3.2593214344169414,3.2595488142429367,10362648
0,0,0,0,0,0,0,0,0,0,0,0,1.472954317683496,-1.1129593387793706,1.2714548792189215,-2.4171380301878487,3.258487052737123,3.2586007426501205,-0.030118385567472643,0.06550033873323663,0.397621226027158,-1.1045651679712734,3.259388310836352,3.2594268631251886,10363642
0,0,0,0,0,0,0,0,0,0,0,0,1.1714600767445655,-0.1660317261256845,0.05637446121865048,0.10534058872945173,3.2590354393762873,3.2589418123891125,0.710913647522169,0.845645242410331,0.7877522930803648,-0.22939044587498256,3.2591597508382497,3.2591558169312256,10364637
0,0,0,0,0,0,0,0,0,0,0,0,0.7170379539773409,-1.0059047467595037,-0.6451981240747123,0.5736242262869151,3.258795471047815,3.2585747788637613,1.0920006623268916,0.5268245013743045,1.7746456473643357,0.05448697262847097,3.2592136453644804,3.2591829608896923,10365632
0,0,0,0,0,0,0,0,0,0,0,0,0.17573038050298456,-0.1678189000867486,-0.02718998517870726,0.47688040457730346,3.258584220240619,3.258678634009198,2.823425653389174,2.006476689157091,0.5768614383770749,-0.03919666280706677,3.25894456612403,3.2595110487355052,10366626
0,0,0,0,0,0,0,0,0,0,0,0,0.4877824411132861,-0.3230064181097052,0.21966110702289426,-0.1749982804057932,3.259086580167601,3.259193582438657,1.1316493310510314,1.044951527708951,0.630480591116022,-0.7999210476781187,3.2592919301142604,3.2590507816136816,10367621
0,0,0,0,0,0,0,0,0,0,0,0,0.2665308554805345,-0.7693463288958464,-1.6479557452149087,-2.3118702187383433,3.2588273356947104,3.2588088463316973,0.46261212380076927,0.5790632461384828,0.6025073650488096,-1.051195031546954,3.2591904353130383,3.2588863443000724,10368616
0,0,0,0,0,0,0,0,0,0,0,0,0.5494055210835362,-0.7389974163767595,-0.8744752734273997,-1.2826570728608455,3.2588788698767264,3.2589520405473755,0.5268587263654144,1.0629877046332006,0.6743692248307734,-0.4616148783701513,3.2587777684662065,3.258791537140791,10369610
0,0,0,0,0,0,0,0,0,0,0,0,0.26931094757449,-0.4874244555740899,-0.7316209473158057,-0.4872427090695749,3.259018130185381,3.258950466984566,0.8027062538512055,1.3826306322372712,1.2200040960316774,-0.041153781551573454,3.259597594690036,3.2594115208877943,10370605
0,0,0,0,0,0,0,0,0,0,0,0,0.5674546799009657,-0.5744487731991736,-0.7642074661502202,-0.6471280988607524,3.2587026308420457,3.258843071322807,1.3301393306421436,2.083247671514472,1.4090739618627979,0.26439277701291763,3.259342677514872,3.2590122293248447,10371600
0,0,0,0,0,0,0,0,0,0,0,0,-0.684444354110283,1.4138076321849384,-0.7414132286802803,-1.698466324623385,3.2589366983099817,3.2586208055759434,1.5934231392649578,1.8707671249827296,1.0863743885009751,0.4604653907376993,3.2593293022309897,3.2590173434039764,10372594
0,0,0,0,0,0,0,0,0,0,0,0,1.2150343912880888,-0.13111200703525625,-0.5771254035383944,-1.0411816646077232,3.258703024232748,3.2589178155562655,1.0502933800570227,0.19293610965443964,0.21376496717512214,-0.6599298190986894,3.2591518830242014,3.25906848419529,10373651
0,0,0,0,0,0,0,0,0,0,0,0,-0.23082474837598183,-0.29194271468433314,-0.7631712750400632,-0.2546610778166148,3.2587852428895525,3.258349365991278,0.024735227195647618,0.11312146343248647,0.21678856811387157,0.07422653129417077,3.2590759586186357,3.2591754864663462,10374708
0,0,0,0,0,0,0,0,0,0,0,0,0.5610439850144369,-0.12565685816488958,-0.009492124258533031,0.9876506313861169,3.2586267064364796,3.2587742279498846,0.8815354563636132,1.2332916537870948,0.981798551297015,-0.04102435601047945,3.2589016865374667,3.2588442514949145,10375764
0,0,0,0,0,0,0,0,0,0,0,0,0.9859106643093424,-0.15707540000383852,-0.15023866298659597,-0.6339432160786648,3.2587097118746886,3.2588359902901636,1.7902569639989094,0.5161376495525418,0.5942969076987396,0.16770403000164388,3.2594304036415105,3.2594241093902716,10376821
0,0,0,0,0,0,0,0,0,0,0,0,0.10795270299347674,-0.32765078874239784,-0.24312450207763933,-1.1134550110644115,3.258952433938078,3.2590059350736063,0.785786519740405,0.5981194851540905,1.1370324894228565,0.07236658005316018,3.2592848490816175,3.2591975163456812,10377878
0,0,0,0,0,0,0,0,0,0,0,0,0.8271987589834641,-0.1668476184424899,-0.09255853802663541,-1.1194101595175456,3.2591211985494133,3.2587750147312895,0.39062005169630665,1.8946652167636413,0.9009996415376236,-0.24085227738049952,3.259180600545478,3.259037012939097,10378934
0,0,0,0,0,0,0,0,0,0,0,0,0.45009993911980856,-0.12966708298529184,0.26819175102612386,0.5716627802446818,3.2588887046442867,3.258570844956737,-0.6653550702756726,0.9701408112216963,0.3088026534083669,-1.720639398174214,3.2593308757937995,3.259433944157832,10379991
0,0,0,0,0,0,0,0,0,0,0,0,0.4015464784558389,-0.07059081442246609,0.08734099714052643,0.20044672494491633,3.2590688775859924,3.258821041443472,-1.1166237731723514,0.5410853077274927,0.012246645956831687,-1.463592405747462,3.2592584919045553,3.2591927956572526,10381047
0,0,0,0,0,0,0,0,0,0,0,0,0.6949510329903403,0.44752991766094175,0.02995748877018556,-0.22902655947525016,3.2588237951783885,3.2589288304959334,-0.8311035550956195,0.26415477563795753,-0.00724428978494284,-0.9999523520412864,3.2591994832991933,3.2589138816492413,10382104
0,0,0,0,0,0,0,0,0,0,0,0,1.4554936713568771,-0.02516638340549271,0.6224491265355498,-1.1638778643462495,3.25852245790034,3.258537406747032,0.428725842085581,0.37730692354523226,0.38026915553440516,-0.30966535921875943,3.2592514108719124,3.259232134727494,10383161
0,0,0,0,0,0,0,0,0,0,0,0,1.2719592060994154,-0.40631752089470874,-0.8572821327784219,-0.6908884872065171,3.258817107536448,3.258858020169499,0.9395106243503837,1.1782090876351698,0.5188980721113767,-0.29791949962610004,3.2589520405473755,3.2592990111469042,10384217
0,0,0,0,0,0,0,0,0,0,0,0,0.31246276050362115,-0.5811694599592042,-0.859843893032538,-1.0120144977586862,3.2588371704622707,3.2588890980349894,1.1705198729657975,0.6501088202129387,1.018161620874598,0.3790555452174598,3.2594732832280733,3.259250624090507,10385274
0,0,0,0,0,0,0,0,0,0,0,0,-0.4727261987598179,-0.6675069174178739,-0.29666537006680604,-0.8312341608088207,3.2589823316314614,3.2584846923929085,1.487546752398819,0.13401759076328165,2.5498570382424637,-1.2382409022141576,3.2591687988244056,3.259066517241778,10386331
0,0,0,0,0,0,0,0,0,0,0,0,0.27429127386704366,-0.32463505561769673,-0.44475336608330795,-0.9442584567378112,3.2586656521160187,3.2590704511488022,1.8523576202818894,0.6182929537645523,0.9734755842060546,-0.15444400959539525,3.259020883920298,3.2593080591330597,10387387
0,0,0,0,0,0,0,0,0,0,0,0,0.0028922084441433482,-0.7663262684734187,-1.1881941304438268,-1.4874916777004812,3.2588273356947104,3.2588949988955256,1.5969239231257346,1.9368453546578115,1.6507665217836525,0.5286561284847413,3.259375722333875,3.259440238409071,10388444
0,0,0,0,0,0,0,0,0,0,0,0,-0.08104320538559023,-0.5147179025075319,-0.8017452003652096,-1.3707663620431854,3.2590999554514832,3.258752591461252,1.6906095255147844,1.675454935485713,1.3483356175822756,0.14967847462635928,3.259345431249789,3.2590134094969523,10389500
0,0,0,0,0,0,0,0,0,0,0,0,0.4236393003033757,-0.5733771769257995,-0.14730514851869922,-0.2806602693391167,3.2588021586897558,3.2588973592397403,0.8319631137803928,1.103424728324977,0.7078538546387976,-0.18717844333391706,3.2592108916295635,3.258849758964748,10390495
0,0,0,0,0,0,0,0,0,0,0,0,0.40288164649983005,-0.6138547198599243,-0.6752980202791714,0.24647973137852325,3.258900899756062,3.258789963577981,0.3546070998438715,0.2658963162775416,0.4112541808192945,-0.38830416063119894,3.2593690346919337,3.259536619131162,10391490
0,0,0,0,0,0,0,0,0,0,0,0,0.5510298312938012,-0.12630123213544273,-1.6676835021595362,1.9239181427858045,3.2590263913901314,3.2587462972100134,0.6136273400339293,0.4941030495289623,0.652074986943601,-0.7397873449072057,3.2591802071547753,3.2591231655029254,10392484
0,0,0,0,0,0,0,0,0,0,0,0,0.5329787055228596,-0.5400506901801455,-0.8483151851076107,-0.2109290136014239,3.2589713166917935,3.2586821745255197,1.0559743351905744,0.7756244511156619,0.5872410520602526,-0.3276315125979796,3.259490199028277,3.2590637635068607,10393479
0,0,0,0,0,0,0,0,0,0,0,0,1.1953546280091556,-0.509588874529466,-0.044747405618119906,0.16483306465543085,3.2587219069864637,3.25876203283811,0.11531225625422671,0.5698366606040788,-0.10958999509692133,-0.4782537315194286,3.25961451049024,3.2594878386840627,10394473
0,0,0,0,0,0,0,0,0,0,0,0,1.0582418391992854,0.013774575445005351,0.2805579877564892,0.1383562968201991,3.259245510011376,3.2588257621319006,0.5118075980910776,1.0055601365041895,1.3433493904291856,0.020319023170354743,3.2591330002704857,3.259075171837231,10395468
0,0,0,0,0,0,0,0,0,0,0,0,1.09055455810482,-0.5620593264173658,-0.5598213267113359,-0.5526081147918838,3.258701057279236,3.2586243460922653,0.6503204644108372,0.5441045813685157,3.0418711831416108,-1.4155692357503458,3.2593470048125983,3.2592270206483622,10396462
0,0,0,0,0,0,0,0,0,0,0,0,0.6986843107562435,-0.4227557447857552,-0.3975118634118871,-1.50952942484968,3.2586361478133377,3.2584740708439432,1.1370612069441326,1.2897357451600724,0.974990925191751,-0.5853051764136763,3.259364707394207,3.2595409464288885,10397457
0,0,0,0,0,0,0,0,0,0,0,0,0.2179958841795783,-0.30251981050012233,-0.4174146792190884,-1.672886880980358,3.2586463759716002,3.258708925093284,-0.08934374920651307,0.9331376949712866,0.37360787077043894,-0.6252119094385993,3.2591983031270866,3.25905864942773,10398452
0,0,0,0,0,0,0,0,0,0,0,0,1.007868159755249,0.057100267064603215,-1.0502650559264486,-1.0558999843478185,3.2586160848875148,3.258316714562978,0.006374502941906802,1.252022165301104,0.5294377958104367,-0.5177297017252089,3.2593879174456495,3.2588890980349894,10399446
0,0,0,0,0,0,0,0,0,0,0,0,0.46978245613365843,-0.2140249984294174,0.5278457436377697,0.33120468034800055,3.2585421274354607,3.258974463817413,0.17471464570935316,1.3381381437943154,0.21804623818948723,-1.043730836359362,3.2590759586186357,3.2592179726622073,10400441
0,0,0,0,0,0,0,0,0,0,0,0,0.5304141915338267,-0.004209280515823426,0.13759390563892193,1.1915407051492577,3.2591302465355687,3.2591078232655315,0.02846968513365807,0.3430445603185368,-0.2688919864764197,-0.090457044894343,3.2595350455683523,3.2589359115285763,10401435
0,0,0,0,0,0,0,0,0,0,0,0,2.349978762862535,-2.2242326050081975,1.225273957881207,0.33855361205978535,3.258710498656094,3.258791930531493,0.21480627236441044,0.4308367765947314,0.019563319631018594,-0.5812005378246948,3.25970420357039,3.2594854783398484,10402430
0,0,0,0,0,0,0,0,0,0,0,0,1.046289449487859,0.09902234065799005,-0.6846072178610823,0.5660644371586366,3.2588607739044155,3.2589846919756758,0.5282328400889444,0.9056499130308524,0.44845123868599396,-0.19212729837027767,3.259087760339708,3.2593033384446306,10403424
0,0,0,0,0,0,0,0,0,0,0,0,1.079762670965513,-0.8286011968375678,-0.016778506848634106,0.09154477018651606,3.258808059550292,3.259014589669059,1.4940896265613586,0.6996028780463788,1.3672640046195987,0.2466300066268452,3.2596857142073765,3.2593631338313975,10404419
0,0,0,0,0,0,0,0,0,0,0,0,0.3256153852481109,-0.8407577563235469,-1.161163468499597,-0.29612760497660695,3.2591613244010595,3.258373362824125,1.3134560243434934,1.3477463183100602,2.7036649350720565,-1.0168067832954863,3.259594840955119,3.2595791053270227,10405413
0,0,0,0,0,0,0,0,0,0,0,0,0.2880843386750625,-0.7595961403365302,-2.046222131994025,-0.21660288770233246,3.258854086262475,3.2588320563831394,2.125604048443323,0.5676277718100275,1.200893175708434,-0.44191190503977595,3.259092087637435,3.2591097902190436,10406470
0,0,0,0,0,0,0,0,0,0,0,0,0.14530475679692706,-1.2919694175683756,-2.9498008429766704,-0.7328341642420487,3.2588340233366515,3.2586652587253164,0.3579772779914472,0.33307446635657145,-0.18269772323342837,-0.6498527228656676,3.2589937399618316,3.259014589669059,10407527
0,0,0,0,0,0,0,0,0,0,0,0,0.08806286907945501,-0.533792630886153,-2.4976300951993577,-1.520623042657738,3.25911411751677,3.2586943696372948,0.361832900265801,0.22365205569887825,0.22377597377013847,-0.4825523117246999,3.2592718671884375,3.2594001125574246,10408583
0,0,0,0,0,0,0,0,0,0,0,0,0.46859244925885785,-0.5287922416677763,-1.4221333530108156,-0.7189934991590379,3.2588281224761153,3.258732921926131,1.0145404594588827,1.255750328987876,0.7911149968045946,-0.304740501015246,3.2591054629213168,3.259112150563258,10409640
0,0,0,0,0,0,0,0,0,0,0,0,0.7805178380629822,-0.2716032351974529,1.0758814782955024,0.29139314787306164,3.259077532181445,3.2588056992060777,0.4556373066469796,0.5580384800479984,0.40063617237045435,-0.4857301218187954,3.2592518042626146,3.259178633591966,10410696
0,0,0,0,0,0,0,0,0,0,0,0,0.8181173346182506,-0.6971312042631154,1.1631257013232352,-0.26888726578799077,3.2590299319064533,3.2586817811348174,1.3458887274132643,0.7083180556676454,0.7667869289859448,-0.47338630835846757,3.2596943688028297,3.25953307861484,10411753
0,0,0,0,0,0,0,0,0,0,0,0,-0.22324765005679725,-0.37532777492139036,0.3711609806014276,-0.71932473413047,3.258905620444491,3.2588942121141207,1.3327514449061686,1.6145674961289758,1.4056805736637799,0.1432481102047098,3.2593060921795476,3.2591644715266788,10412809
0,0,0,0,0,0,0,0,0,0,0,0,0.4586746762603135,-0.42789854143840567,-0.8699615085079083,-0.49126237526683514,3.258678634009198,3.258468169983407,1.8626223638799624,1.9081349144142763,1.763504822671988,-0.031251350790423245,3.2592392157601373,3.258835596899461,10413866
0,0,0,0,0,0,0,0,0,0,0,0,1.0027851584893654,-0.37383249686151704,0.06026194813989975,0.15071112522019448,3.2588296960389247,3.2587797354197185,0.5197001957535977,1.3459430153301972,0.6061592109393132,0.12956794852828366,3.25913693417751,3.2592238735227435,10414923
0,0,0,0,0,0,0,0,0,0,0,0,-0.21365285082493432,-0.40954961890573727,0.49643861012919066,-0.28941675298413666,3.258541340654056,3.2586251328736697,0.8914426078131923,1.765202303552902,0.4588182638666944,-0.46612706972683304,3.2590342592041797,3.25898705231989,10415979
0,0,0,0,0,0,0,0,0,0,0,0,0.4814358689112507,-0.12122177138588086,0.39983286855612615,-0.911843456249649,3.25864794953441,3.25923803558803,0.24185975096938025,2.280467412527491,0.34437540106480136,0.24823661425550153,3.259221119787826,3.258922929635397,10417036
0,0,0,0,0,0,0,0,0,0,0,0,0.6847759824724176,0.0314201154017586,0.8301188981674787,-0.22076653489667591,3.259258885295258,3.2590031813386893,0.3098211419369151,1.573298451101595,0.5041018610122038,-0.37222156193513417,3.2591609310103573,3.2590374063297993,10418092
0,0,0,0,0,0,0,0,0,0,0,0,0.64738852350575,-0.1469196256303341,-0.08353887600170087,-0.1930875650748688,3.258780128810421,3.258871395453381,-0.4939531676713428,1.0770337196628712,0.09041888599620891,-1.3884484873352632,3.258974070426711,3.258993346571129,10419149
0,0,0,0,0,0,0,0,0,0,0,0,0.14016628744200318,-0.25944824927428356,0.07548223441627434,-0.5804554558343239,3.258843858104212,3.2585661242683077,-0.2809293485795675,-0.09539527838173847,-0.2833612899018872,-0.8054847723823514,3.2595381926939715,3.259092087637435,10420205
0,0,0,0,0,0,0,0,0,0,0,0,0.36986515162767786,-0.33116376771494954,-0.26503911793698287,-0.6676804027176383,3.259236068634518,3.2590063284643085,0.14299437320165312,0.5009279848251325,0.3739654629189328,-0.639357058925278,3.2591758798570485,3.2592167924900997,10421262
0,0,0,0,0,0,0,0,0,0,0,0,-0.5601088953148001,0.9373457953150028,0.46996813654519753,-1.0041478638825252,3.258911127914325,3.258854479653177,0.8497864663346368,1.1727944580071517,0.6939097278010521,0.18925948014968397,3.2594217490460573,3.259083826432684,10422318
0,0,0,0,0,0,0,0,0,0,0,0,1.5340419929077616,0.41771444293432747,0.7208164716740216,0.6696292602573942,3.2587006638885336,3.2585086892257555,0.6798715805854297,0.8845488291440998,-0.1025719049658662,-0.386259315760054,3.259491772591087,3.2594241093902716,10423375
0,0,0,0,0,0,0,0,0,0,0,0,1.471603020620706,-0.2501626551345175,0.29971768852683167,0.12313089646469312,3.259024031045917,3.2589193891190753,0.6179208061600692,0.7176201722169128,0.224120977416155,0.3163372655316908,3.2589512537659706,3.2590704511488022,10424432
0,0,0,0,0,0,0,0,0,0,0,0,-0.12107070935615412,-0.9353961509938419,-0.2878789887284027,-0.9136762635321931,3.2587486575542277,3.2586011360408227,0.8414568116017356,1.3034843568187184,0.907575560519166,0.14621152236598997,3.259208531285349,3.259185714624609,10425488
0,0,0,0,0,0,0,0,0,0,0,0,0.2886964546080178,-0.599577784487937,-0.6873743280618582,-0.9283371482297359,3.2586931894651876,3.2587474773821206,3.2243147759812802,-0.596836244682818,0.7051780110809815,1.1261257321984448,3.259413094450604,3.2593611668778855,10426545
0,0,0,0,0,0,0,0,0,0,0,0,0.1278378162190695,-0.8018262388499067,-1.0366206928039423,-1.3061936385862396,3.2590169500132737,3.2589839051942713,1.544881086931358,1.7755842775802941,1.174851104599369,0.5433016709448899,3.2594898056375747,3.259151096242797,10427601
0,0,0,0,0,0,0,0,0,0,0,0,0.35708585465977843,-0.9844991784690831,-0.7002806902266372,-0.7996208905721772,3.258784062717445,3.2586589644740775,1.3714182104370842,1.536947576635787,1.1865529044333583,0.03576196858429534,3.259099168670078,3.2591904353130383,10428658
0,0,0,0,0,0,0,0,0,0,0,0,-0.14196172260781795,-0.7567428775719258,-1.0190821551182454,-0.48241265802534317,3.258900112974657,3.2590964149351613,1.2488266526254002,1.3717474784550046,0.5601840329389611,-0.12987243293195164,3.259574778029296,3.2595118355169097,10429714
0,0,0,0,0,0,0,0,0,0,0,0,0.25590025852921705,-0.4955184692762457,-0.3536936466328677,-0.7884863601310682,3.25888595090937,3.258821434834174,1.1148566621371105,1.420192363285108,0.9809834457616144,0.09098654877979144,3.2593985389946147,3.259112150563258,10430771
0,0,0,0,0,0,0,0,0,0,0,0,0.03894843327384392,-0.46864437683157645,-0.8047994857787473,0.027014139534728473,3.2586483429251123,3.2584268639596536,1.0119074954876297,1.2984119771018,0.7712153281230125,-0.6012284518752637,3.2591644715266788,3.2590617965533486,10431828
0,0,0,0,0,0,0,0,0,0,0,0,2.6926732054559235,-1.7681547007745146,0.6660482246933251,-2.42364038510804,3.258765573354432,3.2588993261932524,0.12789957855934841,0.7620088055144316,0.16987515328826347,-1.3106668842633822,3.2591542433684157,3.259147555726475,10432884
0,0,0,0,0,0,0,0,0,0,0,0,0.6708330358067792,-0.15974298235690382,-0.09678591451476985,-0.6343212645436841,3.2588379572436756,3.25894299256122,0.11191414736677972,0.6905611861421092,-0.14967454071933514,-0.6007032752875417,3.259252591044019,3.259090120683923,10433941
0,0,0,0,0,0,0,0,0,0,0,0,0.5552914327730456,0.008380795524215164,0.00943075530895654,-0.3662113387836622,3.2590720247116116,3.258641261892469,0.23536132995621323,0.2857350094002496,-0.1456898862945898,-0.2903789866422399,3.259381623194411,3.2590688775859924,10434997
0,0,0,0,0,0,0,0,0,0,0,0,0.929631403640676,-0.27193210982467053,-0.21871539577429244,0.47111172331711326,3.2589709233010913,3.258734495488941,1.2147090571771928,-0.14946486347494883,0.8990342615883662,0.7007177472970184,3.2593100260865717,3.259204203987623,10436054
0,0,0,0,0,0,0,0,0,0,0,0,0.6750600189042113,-0.10114232315329588,0.1479349670332631,0.048621123864784704,3.2589532207194827,3.2584878395185277,-0.29274837884287586,2.3825436452083166,-1.1381941721670832,-0.7358774347159188,3.2594650220233228,3.2592573117324486,10437110
0,0,0,0,0,0,0,0,0,0,0,0,0.804509950221771,-0.1931843391876625,-0.05329814592577766,-0.22226456669146616,3.2588658879835473,3.258698303544319,0.004617226674226126,0.8568871685131988,0.7468050416475585,-0.4379838988761781,3.2595960211272264,3.2592879962072363,10438167
0,0,0,0,0,0,0,0,0,0,0,0,1.1499085605035497,-0.5095857274038466,-0.5914239753990144,-0.7623821332910219,3.258961875314936,3.258826548913306,0.29753476351913966,1.6099589240502028,0.9883009062172062,0.011103059184915921,3.259254164606829,3.2593249749332633,10439223
0,0,0,0,0,0,0,0,0,0,0,0,0.41279902610767194,-0.5372989222167638,-0.4907867659076173,-0.5314389743136138,3.258526391807364,3.258610970808383,0.12631657437283686,1.0814518906416763,0.4418745329230467,-0.8068852432829431,3.25901144254344,3.2590468477066574,10440218
0,0,0,0,0,0,0,0,0,0,0,0,0.9107230795291757,-0.7295493518768968,-0.9777080747733206,-0.1801658606726957,3.2591483425078795,3.2585696647846296,-0.47016325833359457,0.2643742876499042,-0.27762840719561666,-2.3303737438170606,3.2594854783398484,3.2592832755188077,10441212
0,0,0,0,0,0,0,0,0,0,0,0,1.9522879066810497,-1.1772378059909112,-0.7336646120148435,-0.0668697317683377,3.2587097118746886,3.258660538036887,-0.3530575338670652,0.684242544679945,-0.12144521730485168,-1.4035995368480128,3.259126706019247,3.2590834330419813,10442206
0,0,0,0,0,0,0,0,0,0,0,0,0.5021777870866998,0.7234030155423897,-1.6209514404477405,-0.18538615529372157,3.258881230220941,3.2586947630279974,0.17819851376992626,0.47517072858461484,-0.20839400391507193,-1.1671835264186294,3.2593344163101214,3.258931977621552,10443200
0,0,0,0,0,0,0,0,0,0,0,0,0.4028926614394976,0.1843511443556719,0.13565409608532142,-0.4295405542302792,3.2592604588580674,3.258762426228812,0.14941254251152783,0.27040614729000895,-0.016608562065191512,-1.224730291930472,3.2595377993032693,3.2596723389234947,10444195
0,0,0,0,0,0,0,0,0,0,0,0,0.8262015135528461,-0.19651360470218712,-0.21790737127153528,-0.3209285284195576,3.258725054112083,3.2585409472633535,0.5395318078436622,0.4207179809472538,0.6123342647950965,-0.6527225080397734,3.259433944157832,3.259287209425832,10445189
0,0,0,0,0,0,0,0,0,0,0,0,0.6710100616228653,-0.49420297076737535,-0.0967198248767644,-1.0073764213772323,3.258701450669938,3.258723480549273,1.3707360709590997,0.5629239991812706,2.5873282894287453,-2.0505592644881325,3.2592443298392686,3.2592443298392686,10446183
0,0,0,0,0,0,0,0,0,0,0,0,1.0784518931450715,-0.396094870101794,-0.6797582840631347,-1.6357602400493907,3.2591967295642768,3.2587514112891447,0.8468132194057965,0.7821315267242821,0.4845652919489493,-0.29130896226274516,3.259444565706797,3.259287209425832,10447177
0,0,0,0,0,0,0,0,0,0,0,0,0.5987390755103916,-0.3284068856724364,-0.7961134190694593,-1.1114613069845805,3.258314354218763,3.258258492739021,0.9871754154176015,1.2040587906907547,0.5574527212921049,-0.12593183826587656,3.2591534565870113,3.2589437793426246,10448172
0,0,0,0,0,0,0,0,0,0,0,0,0.3582672069391259,-0.7328058401114749,-1.0711446608477426,-0.982534978691933,3.258972496863901,3.2588021586897558,0.5044803028679256,0.5167961855883819,0.19498174130698934,-0.5923869958385224,3.259230167773982,3.2590141962783568,10449166
0,0,0,0,0,0,0,0,0,0,0,0,0.09127844468098219,-0.35297138130323663,-0.8923104277027163,-1.2210520888629066,3.258938271872791,3.2591597508382497,0.4845491629301504,0.8193097018372657,0.13445779495928226,-0.4403654861885889,3.2590987752793756,3.2592462967927807,10450160
0,0,0,0,0,0,0,0,0,0,0,0,0.12116630329684058,-1.0469932254544765,-1.2648545700138294,-0.5138579504320562,3.2588883112535845,3.2584866593464206,1.269153543609803,1.6862889154301781,0.9723957267279298,0.2253912359942479,3.2590153764504644,3.2594536136929526,10451154
0,0,0,0,0,0,0,0,0,0,0,0,0.4742159693498575,-0.5759566397615241,0.8206653261977822,0.8146853941303961,3.2588033388618634,3.25885172591826,1.4934129945532075,1.9089980136153715,0.8361385626958087,-0.07571787544702,3.2593068789609525,3.2592683266721156,10452149
0,0,0,0,0,0,0,0,0,0,0,0,0.5025817993380784,-0.7192149781244966,-0.09589134405748176,-1.641084783206556,3.2590633701161584,3.258721513595761,1.3799209570790478,0.8621975496050774,1.0196423434784823,0.32903631079629786,3.2590354393762873,3.259549994415044,10453143
0,0,0,0,0,0,0,0,0,0,0,0,0.3705689275942954,-0.0553831166485687,0.25490576683351596,-1.9606289697443209,3.2590594362091343,3.258732528535429,1.3434001378297968,1.7252330214062954,1.2686401687431534,0.3961955781216118,3.259531111661328,3.259151096242797,10454137
0,0,0,0,0,0,0,0,0,0,0,0,0.7653408247638731,-0.3910689104877604,-0.12810532189671062,0.38869715794290993,3.2588399241971877,3.2587773750755042,1.508229661968906,1.9403319764533014,2.0065514333905496,-0.062456281477961714,3.2596274923834194,3.2590759586186357,10455131
0,0,0,0,0,0,0,0,0,0,0,0,1.5137375251933962,-0.12337204496527254,-1.255223972228047,-0.033783213351155916,3.258822615006282,3.2588627408579276,-0.7556307620562032,2.9377918050040965,1.1059125311270392,-0.5859912497986852,3.259128672972759,3.258776588294099,10456188
0,0,0,0,0,0,0,0,0,0,0,0,1.698861288888608,-0.5635585383842633,-1.233172063013561,-0.4925837746362417,3.259138114349617,3.258704204404855,0.47140952007884024,1.2865319712796177,0.7451350981158135,-1.107267368706151,3.259359593315076,3.259197909736384,10457245
0,0,0,0,0,0,0,0,0,0,0,0,1.2354159635801272,-0.10855852467519338,-0.4543151204961682,-0.6289278780135963,3.2590232442645126,3.258736069051751,-1.1067709096397054,1.0877079829821565,0.2033121828212956,-1.0838598351311486,3.2594174217483305,3.2596208047414783,10458301
0,0,0,0,0,0,0,0,0,0,0,0,-0.23111349715155327,0.1720942702405775,-0.5009806991792559,-0.8183466813977576,3.25887611614181,3.258669979413745,-0.6732637969569917,0.9994397639560417,-0.21389163898129926,-0.9616455390030788,3.258996493696748,3.2592852424723198,10459358
0,0,0,0,0,0,0,0,0,0,0,0,-0.015595974397179413,-0.1174806258059294,0.23440539054934864,0.3136126415267755,3.259313959993596,3.2587372492238575,0.19558638281659874,1.506458617026641,0.450495296775734,0.061303646719890435,3.2594154547948184,3.259333236138014,10460414
0,0,0,0,0,0,0,0,0,0,0,0,1.133571044632321,-0.6652964550610131,1.4440975360986632,-1.7489045201426172,3.2591605376196546,3.2587262342841905,0.9819094874750957,1.2540929739586084,0.3674922189107202,0.8479591665219266,3.2593631338313975,3.2594807576514193,10461471
0,0,0,0,0,0,0,0,0,0,0,0,-1.1717177476546463,0.6729892102467072,-0.9796939110391033,-1.34831516126575,3.2586416552831716,3.259049601441574,1.5460577185222766,0.7755681962452169,0.439142827885488,0.11781264755876632,3.2592203330064216,3.2591251324564374,10462527
0,0,0,0,0,0,0,0,0,0,0,0,-0.4108891142474549,-0.31015237690834724,-0.33050837880472883,-0.641617088510643,3.258858020169499,3.258795077657113,0.6129074350485127,0.04222852495056688,0.03344017665865143,-0.5931588283966575,3.259307665742357,3.2591924022665504,10463584
0,0,0,0,0,0,0,0,0,0,0,0,0.5407603670072993,-0.5305585659216124,-0.06017500879466638,-0.23001160979409335,3.2588387440250806,3.258600349259418,0.2738188116334452,0.019846560936756245,-0.46198545241182476,-0.3661771137925522,3.259230561164684,3.2591554235405233,10464641
0,0,0,0,0,0,0,0,0,0,0,0,0.7568172284146819,-0.73508868635758,-0.1861343844097119,0.14992867111309421,3.2584795783137768,3.2585358331842222,0.6853869182332657,1.2429069093354832,0.606092334519903,0.11634136633174018,3.259203023815515,3.2590138028876545,10465697
0,0,0,0,0,0,0,0,0,0,0,0,0.2305419004609466,-0.6306367672248802,-1.2881613955690139,-1.0057473904785383,3.259075565227933,3.2587966512199222,1.1473188695095622,2.102923500886381,0.07222417261888654,-0.6226733592359256,3.2591479491171773,3.259294683849178,10466754
0,0,0,0,0,0,0,0,0,0,0,0,0.18591054510003865,-1.0659542639201003,-1.248777085396896,-0.36417790224288726,3.25911254395396,3.259003574729392,0.4847576600024295,0.8890173541328136,0.07989568470665034,-0.1989778040621047,3.25923803558803,3.259178633591966,10467810
0,0,0,0,0,0,0,0,0,0,0,0,0.9312376178786298,-0.6506977260944516,-0.2535607640219646,-0.07932369462534124,3.2584626625135735,3.2585511754216165,1.026119914784421,0.6634239153175253,0.5983047721749272,-0.5992453693443976,3.259559435791902,3.258990592836212,10468867
0,0,0,0,0,0,0,0,0,0,0,0,0.566796537255828,-0.440846209626938,0.07937090150963085,0.3434855512959422,3.259233708290304,3.259059042818432,0.3922479024228933,0.2630249575406262,-0.12390862988336442,-0.6615981890676246,3.259411914278497,3.2594252895623788,10469923
0,0,0,0,0,0,0,0,0,0,0,0,0.07116477145728724,-0.10752862781627509,0.09837875346884173,-0.20636843518834533,3.2589842985849735,3.2590417336275257,0.7832180718443479,0.8764839263539226,0.23896872269734415,-0.41290288125310914,3.259583039234047,3.259273047360545,10470980
0,0,0,0,0,0,0,0,0,0,0,0,0.09149835008363127,0.03237802176213524,-0.3907427895954596,0.30607960296626124,3.258778555247611,3.2587533782426568,1.1082398305225172,1.660812933541886,0.8288938795201635,0.12977644560056276,3.259528357926411,3.2591330002704857,10472036
0,0,0,0,0,0,0,0,0,0,0,0,0.03567188211344267,0.48426002076387653,-0.4529197636747078,-0.02981744168012639,3.258762426228812,3.2587207268143565,1.1720879283056174,1.5058901674616536,0.6592630218580987,0.09013761164398332,3.2593619536592904,3.2593001913190114,10473093
0,0,0,0,0,0,0,0,0,0,0,0,0.8995920896043884,-0.15552386707352006,-0.029032233838109236,-0.4066825874665484,3.2588548730438793,3.258672733148662,1.1678074440726571,1.4274578961679811,0.7131728903261292,-0.04750232070712098,3.2589815448500565,3.2590932678095417,10474150
0,0,0,0,0,0,0,0,0,0,0,0,0.21525316420235208,-0.05768720599260402,0.00009441376857921703,-0.24202654862720352,3.258820254662067,3.2588277290854126,-0.09702745640605168,1.220137848870498,0.0160271306070245,-0.8652821261027008,3.259290356551451,3.2592699002349255,10475206
0,0,0,0,0,0,0,0,0,0,0,0,1.1975934144965905,-0.25457925255051284,-0.008313919104804886,-0.5704841817002513,3.258986658929188,3.25874905094493,0.5925785771105977,2.4770652028399947,-0.9061164744039147,0.03155190128706709,3.259729773966047,3.259214038755183,10476263
0,0,0,0,0,0,0,0,0,0,0,0,0.9257092983376143,-0.352765244575172,0.32552254504234135,-0.12393656062323577,3.2587482641635255,3.2587836693267427,1.0993476270851643,1.7769733401505161,0.9012097121727123,-0.5421116640700894,3.258942205779815,3.2591109703911503,10477320
0,0,0,0,0,0,0,0,0,0,0,0,0.8620260312588252,-0.2732794729804365,-0.21644120412364054,0.12814662792046402,3.2591263126285446,3.2588949988955256,0.46659048397427605,1.0440140776650997,0.0940872542962139,-0.6961123223438647,3.2595684837780574,3.259458727772084,10478376
0,0,0,0,0,0,0,0,0,0,0,0,0.6541957562203117,0.03792640422897389,-0.10678393921660652,0.16122291817938306,3.258833629945949,3.2588741491882978,-0.28044665818770625,0.8213163878102764,-0.2109317673363408,-0.7506008685351453,3.2595763515921057,3.2593674611291243,10479433
0,0,0,0,0,0,0,0,0,0,0,0,0.742181914112796,-0.5556096858512981,-0.13487911640156702,-0.07924462309415616,3.2588603805137133,3.258511836351375,-0.03826668718656149,0.572629734591214,0.16856752259344132,-0.5509129942551844,3.2588938187234184,3.2590712379302067,10480489
0,0,0,0,0,0,0,0,0,0,0,0,0.9016066433914475,-0.5456580812523462,-1.2426622203185822,-2.1505843580465744,3.2589178155562655,3.258559043235665,-0.15494243561535306,0.38070070513495263,-0.10577017137648717,-1.0027513268889576,3.259473676618776,3.2594040464644487,10481546
0,0,0,0,0,0,0,0,0,0,0,0,1.8254076034316544,-1.653068250783473,-2.5795186972044344,1.148611944748395,3.2586762736649835,3.25863496764123,0.02733868686421953,1.0837614874555452,0.009892202602887463,-0.7127023950460428,3.2592994045376065,3.2592510174812097,10482603
0,0,0,0,0,0,0,0,0,0,0,0,0.7175855538351003,-1.018987347958964,-0.9579626152470845,-0.10866906746257156,3.2588383506343783,3.258636934594742,0.28752965778465955,0.014292671000083803,-0.5032985571978756,-1.4139193551444238,3.259254951388234,3.2593049120074404,10483659
0,0,0,0,0,0,0,0,0,0,0,0,0.04712938632123307,-0.5351203245067983,-0.9288481627521707,-0.36345839064817315,3.259142835038046,3.259023637655215,0.598418855478627,0.829258946092003,-0.057760770053955315,-0.17278939161174195,3.259337170045038,3.2590051482922013,10484716
0,0,0,0,0,0,0,0,0,0,0,0,0.166345258515508,-0.37087734590498755,-0.9416066100128424,0.23503284871969804,3.2585448811703777,3.2587718676056703,1.6752377838179806,1.1327173868080838,1.0472324070015437,1.3077856907589065,3.2594170283576283,3.259366674347719,10485773
0,0,0,0,0,0,0,0,0,0,0,0,-0.2727358070297011,-0.5353107256067664,0.931409923006287,0.20581532786075207,3.2588112066759116,3.258617658450324,0.8316838063816793,1.901994872331008,-0.10279141697781287,1.8853701812470176,3.258869035109166,3.258968956347579,10486829
0,0,0,0,0,0,0,0,0,0,0,0,-0.10652351457160884,-0.2211685801945424,-0.40460194404148386,-1.2851625782445164,3.2590956281537564,3.258876509532512,1.3181161306042826,0.5579657027680519,-0.012263955147737877,-0.09254634291486058,3.259416634966926,3.259520490112363,10487886
0,0,0,0,0,0,0,0,0,0,0,0,0.4384418056537873,-0.7836515883984074,-0.4024335744897812,-1.1345403593230674,3.258821041443472,3.2586121509804906,1.0313756145686643,1.4044830923656335,0.3444765024753216,0.19120951786154722,3.2595389794753764,3.2594811510421215,10488942
0,0,0,0,0,0,0,0,0,0,0,0,-0.2702464306648291,-0.6553086585174391,-0.11551839298229133,-0.5832741002171159,3.258852512699665,3.2588064859874826,0.793309723533359,1.0398819017269494,0.5697874867662771,-0.1036667112906827,3.259081859479172,3.2592427562764588,10489937
0,0,0,0,0,0,0,0,0,0,0,0,0.05971238132862822,-0.25755603999567506,-0.2908365000291467,0.1811174727818337,3.2586058567292517,3.258527178588769,0.9177576920697321,1.0960254426032832,0.6844844799619293,0.16113204492712555,3.2591861080153115,3.25940916054358,10490931
0,0,0,0,0,0,0,0,0,0,0,0,0.209633971409079,-0.06047634607271505,-0.8289544616883351,1.2333007017732505,3.2586628983811017,3.2584831188300987,1.9975309845842102,2.295831679800949,1.5556415028144719,1.001588857363326,3.259298617756202,3.259468955930347,10491925
0,0,0,0,0,0,0,0,0,0,0,0,-0.9974236366061731,-0.4034674052557236,0.9337466637786226,-1.472865804775453,3.259232134727494,3.2590405534554185,1.913573934265844,2.0977252361446896,1.2854041201357984,0.5577001640439229,3.2593792628501967,3.2588454316670212,10492920
0,0,0,0,0,0,0,0,0,0,0,0,0.949208491946279,-0.5703940952293985,-0.49359990282057553,-1.0190439962201114,3.2588883112535845,3.258620412185241,1.005809939600222,1.383787594293069,0.04162506361306472,-0.03504993141292708,3.259610183192513,3.2595094751726954,10493914
0,0,0,0,0,0,0,0,0,0,0,0,0.7990591286491309,-0.42100909006703974,-0.6407535959188456,-0.1821434357337279,3.258859987123011,3.258575959035868,0.22125984683750233,0.6300388133572118,0.01274507197678947,-1.133963255162627,3.2592667531093062,3.2593367766543357,10494908
0,0,0,0,0,0,0,0,0,0,0,0,0.5788870071038016,-0.8246708303297556,-1.0400742697804295,-0.44445045524244964,3.2590704511488022,3.2588623474672254,0.5042651181537053,-0.05231545595114898,1.543623810246445,-1.032784740064709,3.259656603295398,3.2591798137640726,10495903
0,0,0,0,0,0,0,0,0,0,0,0,0.582321701326573,-0.23745416849305254,-0.6377575323292651,-0.1530797306394256,3.258813960410828,3.2583371708795035,0.10420841028790595,0.9809047676211318,1.6401249098926673,-0.8816459991509913,3.2593993257760197,3.259292716895666,10496897
0,0,0,0,0,0,0,0,0,0,0,0,0.45054643756704776,-0.34539664332826653,0.31611381961271995,-0.5669747432440213,3.2586302469528015,3.2584972808953854,-0.054619545295184285,1.3470035966639036,0.18007970810886717,-0.6010939122550383,3.2588776897046197,3.2591534565870113,10497891
0,0,0,0,0,0,0,0,0,0,0,0,0.7816209055925495,-0.4224819448568755,0.15841764908047307,-0.8950771445127897,3.258714432563118,3.258852119308963,0.6561182565830059,1.3070071705588306,0.5408032465938623,-0.23147659676988086,3.2592604588580674,3.2594233226088667,10498886
0,0,0,0,0,0,0,0,0,0,0,0,0.8947647922950734,-0.25259656341034925,-0.09700109922898999,-0.8517522396745967,3.2589579414079117,3.2587691138707533,0.45853266221674227,1.550010114909424,0.34591237853913054,-0.3518120589032243,3.2593942116968884,3.2591003488421855,10499880
0,0,0,0,0,0,0,0,0,0,0,0,1.7442385130212916,-0.814095308076776,-0.3545634334759037,0.19293846999865413,3.2590358327669895,3.258570058175332,0.4036703948581689,0.49110147846954805,-0.07921157827515342,-0.18309032715443693,3.259048027878764,3.2586632917718044,10500874
0,0,0,0,0,0,0,0,0,0,0,0,-0.14147824543455187,-0.2604273987325905,0.5094889532910529,-1.8699669682940208,3.2586731265393647,3.2590657304603727,0.7995980739114372,0.8390941070430405,-0.05403260636718349,-0.31485142884867534,3.259447319441714,3.259273047360545,10501869
0,0,0,0,0,0,0,0,0,0,0,0,0.8771755072087654,-1.2657900531041684,-0.9943681710205282,-0.9718736972658273,3.258957154626507,3.258725054112083,0.4337805192208909,0.6806839323859134,-0.19103485238967563,-0.2961535687629662,3.2595991682528456,3.259355659408052,10502863
0,0,0,0,0,0,0,0,0,0,0,0,0.24583889792429184,-0.7020363929315081,-0.13817573048779136,-0.4294693505131424,3.259197122954979,3.2588056992060777,0.5652796227073219,0.5533756200522923,-0.44476634797648756,-0.17152778762910217,3.2591034959678047,3.2588953922862283,10503857
0,0,0,0,0,0,0,0,0,0,0,0,0.18282046113258138,-0.9005625844672422,-0.14104118836417057,-0.02930131307856,3.258442992978453,3.2587167929073324,0.5111604703856075,-0.1176773211571361,-0.9992926358333392,0.14173591634463265,3.259757311315216,3.259309239305167,10504851
0,0,0,0,0,0,0,0,0,0,0,0,0.6624003127098456,-1.0460274512800516,-0.770692511879505,-1.2767986985205053,3.2586998771071283,3.258824188569091,0.8153982180831691,2.383193920039406,-0.20385112808360195,0.538029055360443,3.2592097114574563,3.259084613214089,10505908
0,0,0,0,0,0,0,0,0,0,0,0,0.33813032366398854,-1.0979861018641117,-1.6396882462129885,-1.9106313718117918,3.2591566037126305,3.2588702152812736,1.2501165807386136,1.503882694707238,0.5601993751763552,-0.13748847693067515,3.2590968083258636,3.2589233230260994,10506964
0,0,0,0,0,0,0,0,0,0,0,0,0.4065177567622371,-1.1107083571801613,-1.4604165626068786,-0.9014642359571737,3.258721513595761,3.2583296964561574,0.8295205509091079,1.440405170965811,0.4243375688001595,-0.5172001978397606,3.2593296956216924,3.259262819202282,10508021
0,0,0,0,0,0,0,0,0,0,0,0,0.5796686744294971,-1.0458386237428932,-1.5942020528557364,0.1347555917210092,3.2588426779321047,3.2589603017521265,1.0308917440046959,1.2548687404237675,0.153291374837324,-0.7973923322430052,3.2593572329708613,3.259612543536728,10509077
0,0,0,0,0,0,0,0,0,0,0,0,0.5595372986241935,-0.9286829386571571,0.03286346588891338,0.5517060699112498,3.2590252112180247,3.2586908291209733,0.9062931068292983,0.9995652555901117,0.32862049682384686,-0.2931657663781364,3.2595598291826042,3.2590822528698746,10510134
0,0,0,0,0,0,0,0,0,0,0,0,0.004268682511887849,-0.543349271219882,0.8666259487421452,-0.8816550471371467,3.2585602234077715,3.258640475111064,0.6081796655869085,1.3047117358102485,0.8616582109520686,-0.06470844324927845,3.259309239305167,3.2595476340708296,10511190
0,0,0,0,0,0,0,0,0,0,0,0,0.41182774446341325,0.8331692496739923,-1.7106976283428226,0.7100281250510364,3.259317107119215,3.258991379617617,1.1526426258853228,1.73037975196597,0.814747156470675,0.3332459847028237,3.2592777680489737,3.259229380992577,10512247
0,0,0,0,0,0,0,0,0,0,0,0,0.040986983893750176,-0.5623181774995539,-0.062381930635205585,-0.08010221482541738,3.258640475111064,3.2585987756966084,1.2298837101320874,1.608168209572817,0.9075495967328067,0.5551911181439302,3.2592431496671614,3.2589311908401477,10513303
0,0,0,0,0,0,0,0,0,0,0,0,0.696821605780316,-0.586589597057056,0.09307663358171386,-0.15146682875953063,3.2584811518765866,3.258858020169499,0.6737755982608316,1.5268669398864436,0.14070523270430954,0.1866457923228493,3.259413094450604,3.2589823316314614,10514360
0,0,0,0,0,0,0,0,0,0,0,0,0.9013344170253773,-0.2502578556845016,0.2004101396095919,0.07691575013586881,3.2587262342841905,3.2586872886046514,0.2707570517965617,1.07005536199276,1.1405903149354835,-1.1245077162394184,3.2589225362446945,3.2590232442645126,10515416
0,0,0,0,0,0,0,0,0,0,0,0,0.9153170961519593,-0.3857880336985628,0.4454960877294645,-0.21582240054874424,3.2589162419934556,3.258848578792641,-1.8733969418283631,2.8291546021884204,-1.0251266032608273,-1.762926931730143,3.259035045985585,3.2590464543159547,10516473
0,0,0,0,0,0,0,0,0,0,0,0,0.9169748445719295,-0.3856145483987985,-0.3923910966385718,-0.20529841247778088,3.2591294597541642,3.2587667535265386,-1.018142738120882,1.015614022685769,0.5624975636598544,-1.654305071151861,3.2593470048125983,3.259232134727494,10517529
0,0,0,0,0,0,0,0,0,0,0,0,0.985935054532892,-0.3978851911884774,-0.37565861650212007,0.16273117813243604,3.259005541682904,3.259096021544459,-0.013887085185895582,2.1388546274727136,0.7512405218172695,-0.9064819343664567,3.2589968870874504,3.259254557997531,10518586
0,0,0,0,0,0,0,0,0,0,0,0,1.0998110413326074,-0.46529190126560943,-0.055758804769373504,0.27492581307003655,3.258902473318871,3.2587781618569087,0.20028622153833167,1.4686455093199622,0.3636881308183826,-0.28124602809501026,3.2593525122824323,3.2594787906979072,10519642
0,0,0,0,0,0,0,0,0,0,0,0,0.4743174641510801,-0.3593447040730362,-0.0833256582409928,-0.8148093122016563,3.2589764307709252,3.2586750934928768,0.49760658712465605,1.39309521831217,0.27730582681963767,-0.42730530825916624,3.259583432624749,3.2592765878768666,10520699
0,0,0,0,0,0,0,0,0,0,0,0,0.37191393040584686,0.3193809293962632,-1.1327952781671617,0.03630288080011377,3.2588702152812736,3.2588887046442867,0.12672412714053716,0.6152170318623819,-0.10078394422339727,-0.8343978088376294,3.2592116784109684,3.2593529056731345,10521755
0,0,0,0,0,0,0,0,0,0,0,0,1.7137951867336256,-1.5487079916844357,1.1245942621939493,0.39549809640623285,3.2586510966600293,3.2585936616174767,-0.22933183066032298,0.6234739093153369,-0.8816416718532648,-1.0278052005535603,3.2591310333169736,3.259035045985585,10522812
0,0,0,0,0,0,0,0,0,0,0,0,0.9555357880038962,-0.6888601647448735,-0.21997227906850328,-1.1730375734612433,3.258942599170518,3.258528358760876,0.2250891119347944,0.11379337475220855,-0.6002792001103401,-0.6068480380592391,3.2594060134179608,3.2594170283576283,10523869
0,0,0,0,0,0,0,0,0,0,0,0,0.5506057561165996,-0.7353947443240576,-1.2880709157074588,-1.5969487067399868,3.258539373700544,3.2588969658490377,0.5082438717179145,0.3991094230543879,-0.32518934311739717,-0.33344386022613764,3.2590936612002444,3.259195156001467,10524925
0,0,0,0,0,0,0,0,0,0,0,0,0.6149274963054057,-0.9938862674100718,-0.8421228220609214,-0.8741739361493511,3.25920381059692,3.258723087158571,1.1163747568577238,1.2449261838109713,-0.3929941645853715,0.9831962684626899,3.259162111182464,3.2592624258115794,10525982
0,0,0,0,0,0,0,0,0,0,0,0,0.5370640679674229,-1.3264402778673503,-0.46710936631075933,-0.2076705584133337,3.2590197037481907,3.2588387440250806,1.4493567763992279,1.0241966276403223,0.43113850726348246,0.37950283044610383,3.2593001913190114,3.259380049631601,10527038
0,0,0,0,0,0,0,0,0,0,0,0,-0.26924013724805557,-0.8108128560558385,-0.9087427507332266,-0.10614231898097025,3.2588359902901636,3.258809633113102,1.0494782745216218,0.987479506430567,0.46114320291795763,-0.21186370991035816,3.2594465326603093,3.259199876689896,10528095
0,0,0,0,0,0,0,0,0,0,0,0,0.42896030294421944,-1.3167333622852995,-2.1837743382184907,-0.7439871840461711,3.2595118355169097,3.2593001913190114,0.6059739239184765,1.2044808989144444,0.17396680998406527,-0.6413405348468464,3.2592706870163304,3.2595047544842664,10529151
0,0,0,0,0,0,0,0,0,0,0,0,0.49200824403861093,-0.8774343582909534,-1.1843900423514893,-0.28171140929596533,3.2588418911506998,3.258587367366238,0.565987725971666,0.904925287357007,0.017194320821085074,-0.46792368506475507,3.25953465217765,3.2594237159995694,10530208
0,0,0,0,0,0,0,0,0,0,0,0,0.35971252437979273,-1.0826041320090452,-0.21191327713886227,-0.40749572604843687,3.258575959035868,3.258763999791622,0.45591661404569317,0.9474162039060835,0.16985430358103557,-0.2929989687203131,3.25912552584714,3.2589473198589465,10531265
0,0,0,0,0,0,0,0,0,0,0,0,0.7942699902379501,-1.0561781115744246,1.1001831889370906,-2.0767909499157606,3.2590102623713326,3.2587097118746886,1.6492704569423742,2.009822477081117,1.4471978482243835,0.7466225083616386,3.2593249749332633,3.2593202542448347,10532321
0,0,0,0,0,0,0,0,0,0,0,0,1.3706302488601505,-0.8934638492421924,-1.4418807794905637,-0.8566090412865925,3.258410341550152,3.2587514112891447,1.7323789635156348,1.9062226422098447,0.7625414565254993,0.24337902586210083,3.259024031045917,3.2591251324564374,10533378
0,0,0,0,0,0,0,0,0,0,0,0,-0.3129194871091231,-1.024096706401909,-1.6872007950783723,-1.396171533605043,3.2585051487094336,3.2586172650596215,1.0415892173754235,1.0212194468044575,0.1735710589374374,-0.10414192725919809,3.2593422841241697,3.2589949201339383,10534434
0,0,0,0,0,0,0,0,0,0,0,0,1.2844957810039257,-0.9350763243527799,-1.595306693948113,-0.5822866895540583,3.259262032420877,3.2590393732833114,0.6782401893425213,1.232297555482096,0.4329221407082248,-0.08236499814569928,3.2594536136929526,3.2591853212339066,10535491
0,0,0,0,0,0,0,0,0,0,0,0,1.5249239832072239,-0.34552016800882435,0.5444428973725912,-0.43440089635859686,3.2586062501199544,3.258600349259418,1.0919424405029345,0.5943838470439728,-0.4903375137254612,1.7157507319153227,3.2591003488421855,3.259350151938218,10536547
0,0,0,0,0,0,0,0,0,0,0,0,0.6607252550989694,-0.2516807498551309,1.3557506389320657,0.04595314812101699,3.2588552664345816,3.258809633113102,-0.2351760429353765,1.2293089663158614,0.6235069541343395,-0.6726756778568836,3.259471709665264,3.2590861867768988,10537604
0,0,0,0,0,0,0,0,0,0,0,0,0.7567605801535344,-0.23102773797842716,0.5304149783152315,-1.4278084072838315,3.2589178155562655,3.2591062497027217,-0.04844685178361556,1.0132965580578515,0.47879346356313984,-0.5115601553392595,3.2595708441222717,3.25948901885617,10538660
0,0,0,0,0,0,0,0,0,0,0,0,0.1246096521150651,-0.32421924164524574,0.29719644751506413,-1.124984899161446,3.258537406747032,3.2584646294670856,0.11977173325678507,1.1950363749309032,-0.09532997552513783,-0.5498410045911079,3.2587730477777774,3.259029538515751,10539655
0,0,0,0,0,0,0,0,0,0,0,0,0.10864389045761709,-0.5550904101241123,-0.09854869825228431,-0.8495665609319879,3.258751017898442,3.258791930531493,-0.19642273144992964,0.5663551528877202,0.010107387317107596,-0.8195689463101561,3.2591849278432043,3.259053141957896,10540649
0,0,0,0,0,0,0,0,0,0,0,0,0.569066008218051,-0.4163784881089316,0.25965792651866987,-0.9045075064310439,3.258671552976555,3.258966596003365,0.15722685542426768,0.9925007453561717,-0.24623386218951487,-0.4772014113904728,3.2593918513526736,3.259271080407033,10541644
0,0,0,0,0,0,0,0,0,0,0,0,0.3298970496531784,-1.876138481633482,2.2283624206021333,-0.27684949360483807,3.2589559744543997,3.258557469672855,0.644910555471248,1.501169872423395,-0.1858479959783549,-0.45572896668064194,3.2592136453644804,3.2591648649173814,10542638
0,0,0,0,0,0,0,0,0,0,0,0,1.103937709800924,-0.1302791989182471,-0.5737245409160305,0.9618166639586286,3.258853692871772,3.2589736770360083,0.32946392648982126,0.6472819146253961,-0.5318504609883381,-0.6762614341093819,3.2593568395801586,3.259372181817553,10543633
0,0,0,0,0,0,0,0,0,0,0,0,1.3117762460441882,-0.7458605105710637,-0.7711126531496827,-0.4579099247348219,3.258813567020126,3.2588399241971877,-0.07146453517252627,-0.11327881971345183,-0.46500551283425245,-0.9579217026140334,3.2591872881874187,3.2592789482210813,10544627
0,0,0,0,0,0,0,0,0,0,0,0,-0.08206169391413853,-0.8425878098711741,-0.3727313962854619,-0.7980957148189205,3.258869035109166,3.2589327644029575,0.4107809318042912,0.46090284119878305,-1.0602678013167144,0.19364814682580792,3.2593072723516547,3.25908972729322,10545622
0,0,0,0,0,0,0,0,0,0,0,0,-0.050607746911972395,-0.5858484489737091,-0.643775229904083,-0.453482312379159,3.258882017002346,3.2590429137996333,-0.18855688435517362,0.8888017760278911,1.6739014356018822,-0.32317557611174297,3.2597510170639774,3.2596817803003524,10546616
0,0,0,0,0,0,0,0,0,0,0,0,0.4232164052982813,-1.2185158990044473,-1.6484565315790811,-0.1358118457569892,3.258789570187279,3.2587596724938956,1.0225668099602234,1.105157614369108,0.4071983226774123,-0.22121578707883202,3.259156997103333,3.258968956347579,10547611
0,0,0,0,0,0,0,0,0,0,0,0,0.8386204646373349,-1.2189439080886733,-1.8115248455434854,-0.20378307149208444,3.2591282795820566,3.2587958644385173,0.7905319917836179,0.8886511073888668,-0.06692795359229488,-0.41700004541874475,3.259254557997531,3.2588662813742495,10548605
0,0,0,0,0,0,0,0,0,0,0,0,0.34775974127766385,-0.8146118300690448,-1.212329436818294,-0.6695698582613299,3.258876509532512,3.2587006638885336,0.8898061024911524,0.6858196480059204,0.27336759249777703,-0.20350061696775162,3.2592490505276976,3.259167618652298,10549600
0,0,0,0,0,0,0,0,0,0,0,0,0.4042006855250222,-0.7811511970938678,-0.43111451043063526,-0.9293914353122038,3.259155030149821,3.258845825057724,0.7876712545956677,1.254362053199059,0.5327886978135941,0.11226033118490351,3.259110183609746,3.2589339445750642,10550594
0,0,0,0,0,0,0,0,0,0,0,0,0.20795576667258342,-0.2618290498052895,0.9586479018506887,0.18214658285934718,3.258959121580019,3.2590822528698746,0.7908459175641438,0.5146950858467919,-0.1304825819113948,-0.7415131499186932,3.2592022370341107,3.258881623611644,10551589
0,0,0,0,0,0,0,0,0,0,0,0,1.0902858722550717,-1.4097541343872706,0.7570033022169234,-0.5626679018339993,3.258710892046796,3.2586762736649835,0.20661273081454407,0.719372334405462,0.04027927402010846,-0.3040414457370574,3.2592624258115794,3.259338743607848,10552583
0,0,0,0,0,0,0,0,0,0,0,0,0.4201664471824702,-0.7653722960200662,-0.8107821715810504,0.07857153160232681,3.259067697413885,3.258981938240759,0.7816437222532895,1.4519795122122183,1.0886178956768386,0.2360131783501122,3.2593123864307865,3.2591310333169736,10553578
0,0,0,0,0,0,0,0,0,0,0,0,1.217181517741861,-0.6173586508463205,-0.17280119333281435,-1.8795302962696905,3.259031112078561,3.2586943696372948,1.4615432335785905,1.515315021910074,0.6770706387842463,0.058464546020572904,3.2595476340708296,3.2591507028520943,10554572
0,0,0,0,0,0,0,0,0,0,0,0,0.6948530787054393,-0.34538248126297966,-0.5716580595562529,-0.9838414292146479,3.258710892046796,3.25853543979352,0.4496813714124407,1.53563915915956,2.5075734385935586,-1.2262991340516964,3.2590299319064533,3.2592848490816175,10555629
0,0,0,0,0,0,0,0,0,0,0,0,0.9802367902084338,-0.5161199469709332,-0.7447912746419042,-0.4284579430172375,3.258848578792641,3.2588293026482225,0.7211209560776897,1.5052638894634114,1.3228285578284926,-0.05773047896986949,3.258972496863901,3.2588969658490377,10556685
0,0,0,0,0,0,0,0,0,0,0,0,0.49117543592160173,-0.4378139540927355,-0.14202191138528722,0.12400383043334846,3.2590637635068607,3.25885172591826,0.7197948360198541,1.3749280422840169,0.8466664846737962,-0.7292409335662047,3.259627098992717,3.2592974375840944,10557742
0,0,0,0,0,0,0,0,0,0,0,0,0.597106504095376,-0.5738716690387331,-0.17747939556591458,-0.06759081692586145,3.2586951564186997,3.2583529065076,-0.6960934395901488,0.7755567879148468,-0.15685864172680875,-1.167757090062748,3.259103102577102,3.259077925572148,10558798
0,0,0,0,0,0,0,0,0,0,0,0,0.6195636057333476,-0.8174265405448128,-0.8126511708082164,-1.15097464930709,3.2587482641635255,3.2591459821636652,-0.7098286759649128,1.017060520298543,-0.1420714786137913,-0.8984693525397005,3.258994133352534,3.259230561164684,10559855
0,0,0,0,0,0,0,0,0,0,0,0,0.6988007544041579,-0.6863562329240122,-0.5364283485923228,-0.6676528653684694,3.258878083095322,3.258816320755043,-0.33491907536018795,0.32382113025440334,-0.6506819904663551,-1.0083016763093087,3.2597407889057144,3.2596239518670975,10560911
0,0,0,0,0,0,0,0,0,0,0,0,0.5414936472765979,0.20901005375505133,-1.1395796942209833,0.12245308428443483,3.258784456108147,3.2586589644740775,0.8683922729959813,0.697105240476756,0.3531531278077516,0.09918874492511091,3.2593654941756123,3.2590649436789683,10561968
0,0,0,0,0,0,0,0,0,0,0,0,0.7726791349266928,-0.0734322754659981,0.2826248625069693,0.2821095206868077,3.2587982247827316,3.258699090325724,1.875700637781696,1.9947143071549303,1.113730777946803,0.6508601964545484,3.2590177367946787,3.2592852424723198,10563024
0,0,0,0,0,0,0,0,0,0,0,0,0.4398816156246204,-0.017263950975412248,-0.13154119629158928,-1.3953218096878302,3.2585751722544636,3.2586538503949463,1.72604065251835,1.2774344178956052,0.21687550745910494,0.2997707962716575,3.2594276499065935,3.2592183660529095,10564080
0,0,0,0,0,0,0,0,0,0,0,0,0.6374695703350984,-0.43512906254876405,-1.055649394470381,-0.6611044837360958,3.2591192315959012,3.258344251912147,0.7100997221588757,0.07049758082599411,0.001808023668292006,-1.2535449807101464,3.259286422644427,3.259079105744255,10565137
0,0,0,0,0,0,0,0,0,0,0,0,-0.1487858711225833,-0.9392903255570322,-0.8373273893985019,-0.6763145418542077,3.2587348888796432,3.258979184505842,-0.6884474978980419,2.4191466831143718,-2.3581298182165407,-0.5923035970096108,3.259237642197328,3.2591302465355687,10566193
0,0,0,0,0,0,0,0,0,0,0,0,-0.214329089442383,-0.7991661309201873,-0.332949368113204,-0.7692865335090796,3.258843464713509,3.258747083991418,0.6902508008779049,1.1703003609538507,0.5675963005538345,0.10099401485848604,3.259602315378465,3.2594512533487383,10567250
0,0,0,0,0,0,0,0,0,0,0,0,-0.13218202974582072,-1.0885860310299433,-0.5450156742353051,-0.34659215767290086,3.2589052270537886,3.2586337874691234,1.6103062880404337,1.4381935284368428,1.3241338281791004,1.2792215918566694,3.2591007422328877,3.2593674611291243,10568306
0,0,0,0,0,0,0,0,0,0,0,0,-0.05030955675954303,-0.7884934411637117,-0.43709286893521176,-0.4388666676123938,3.2589036534909788,3.2589768241616275,1.9383099482428965,2.2589174698492847,1.6078554639643983,1.1787598346185486,3.2591184448144963,3.2592034172062174,10569363
0,0,0,0,0,0,0,0,0,0,0,0,0.15573197075509673,-1.0985348818939784,-0.7594218682553611,-0.6890981661198337,3.2589186023376704,3.2589064072258953,1.5414947797649834,1.5093256484658297,1.1036430601648164,0.6558177060863621,3.2593792628501967,3.2593926381340785,10570419
0,0,0,0,0,0,0,0,0,0,0,0,0.9191247247606187,-1.2050446277910025,-0.7547771042319661,0.26797813987471336,3.25898705231989,3.2587817023732306,1.124267354520244,1.4956061477191624,0.805770767423006,0.24805211401606964,3.2594555806464647,3.2591534565870113,10571475
0,0,0,0,0,0,0,0,0,0,0,0,1.5864117367758437,-1.4248623043134574,-0.9261904151666659,1.2470335778037998,3.2584095547687477,3.2586322139063135,1.0917429914168109,1.7169124146595496,0.8448812776662442,0.09982131717459167,3.2592175792715046,3.2587226937678686,10572532
0,0,0,0,0,0,0,0,0,0,0,0,0.8592227291134272,-0.9810007549525207,-1.3290441309266245,-0.4158084649811345,3.2589414189984103,3.2587557385868715,0.7685862980587838,0.9730912414897969,0.10020290615593268,-0.5929294816171504,3.2590405534554185,3.25926085224877,10573589
0,0,0,0,0,0,0,0,0,0,0,0,1.2222365882678734,-1.001291847383004,-2.461563248820692,-0.8306499756157368,3.2587742279498846,3.258782095763933,-0.06588664840300659,0.8558981842873317,-0.34128531709734405,-1.4097073208936834,3.258961481924233,3.2593249749332633,10574646
0,0,0,0,0,0,0,0,0,0,0,0,1.4727112022294047,-0.7567137666599472,-1.3275818976857539,-0.2704698765837999,3.2585228512910422,3.2585968087430963,-0.22731885043607358,1.5102520835700133,-0.6736697761618824,-0.19028859022719743,3.2593395303892527,3.2592860292537242,10575702
0,0,0,0,0,0,0,0,0,0,0,0,1.3696294629132106,-0.35771606656504473,0.05472418722202625,-0.5290959392900394,3.2589492868124585,3.2587856362802547,0.004810381509111107,0.9649378257915765,0.6419219663050134,-2.2559749073952324,3.259383196757221,3.259437878064856,10576759
0,0,0,0,0,0,0,0,0,0,0,0,0.3778997633337692,0.01576473900851476,-0.2520737471668419,-1.0706320727624978,3.2587738345591823,3.2588993261932524,-0.11401642728047696,1.0915462960656042,-0.04014906169760962,-0.7599938583366702,3.259172339340727,3.259051175004384,10577816
0,0,0,0,0,0,0,0,0,0,0,0,0.10471863802893615,-0.25118507757009,-0.6817858197433734,-1.1102142584579298,3.25846541624849,3.2586487363158145,0.061971230741885985,1.2730256882936581,0.3177361628694728,-0.2516343297522461,3.25972702023113,3.259241576104352,10578872
0,0,0,0,0,0,0,0,0,0,0,0,0.26649387675450764,-0.4628001645565229,-1.0137859360916537,-0.523962584014247,3.259025604608727,3.2588442514949145,0.30812798835372784,1.3471168931861988,0.9493772565576143,-0.02590123723760095,3.2590948413723515,3.259311993040084,10579929
0,0,0,0,0,0,0,0,0,0,0,0,0.744212596918654,-0.37942847960334775,0.590287469659742,-0.5531801048731929,3.2586853216511393,3.2588320563831394,0.15521820249774484,0.8865382059262044,0.2309380448982769,-0.7934603921723833,3.2592112850202657,3.259201056862003,10580986
0,0,0,0,0,0,0,0,0,0,0,0,1.4931915155877489,-0.24208319688835106,0.7032802943325394,0.9590979408142495,3.2583332369724793,3.2583887050615195,-0.1519066395648288,0.7106001151323456,0.5206337118904246,-1.087375174447915,3.2595122289076124,3.2590244244366193,10582042
0,0,0,0,0,0,0,0,0,0,0,0,-0.27870236381320523,-0.28128340021173953,0.8646822052815204,-0.15277563962646004,3.2588289092575202,3.25894456612403,0.5883771644088226,0.9716081585416982,0.6711831535319273,-0.580750498861134,3.2590079020271183,3.2589642356591506,10583099
0,0,0,0,0,0,0,0,0,0,0,0,0.848913925756684,-0.3549875086531053,0.35811457134658947,0.6479101595771503,3.2588973592397403,3.2586943696372948,0.9777973744627683,1.0064212687517724,0.6807551361030503,-0.4142785685394488,3.2591841410617994,3.259466595586132,10584156
0,0,0,0,0,0,0,0,0,0,0,0,1.0454279238495736,-0.5733236757902712,-0.5045094137799041,-0.3987530110780014,3.258835596899461,3.258583433459214,1.3378324792185399,1.0640215353991431,0.153062028057817,-0.43468020375731037,3.2594972800609208,3.259118051423794,10585212
0,0,0,0,0,0,0,0,0,0,0,0,0.4062789686058722,-0.42050554996795053,-0.3821031429890564,-0.685157964844461,3.2590578626463245,3.2589248965889093,0.8083541641657548,0.3363250537306134,-0.7673105320108571,0.6475887593732785,3.2590409468461212,3.258967776175472,10586269
0,0,0,0,0,0,0,0,0,0,0,0,0.18175437232904104,-0.14428941539399806,-0.9859334809700824,-0.72357256693513,3.258592874836072,3.2588481854019387,0.41166606088472135,0.5878268108161462,-0.3279662880857334,-0.18162219305303012,3.2594827246049314,3.2594429921439874,10587326
0,0,0,0,0,0,0,0,0,0,0,0,0.4563902564513989,-0.4676188072703847,-1.5201537275497587,-0.82544581001351,3.2591605376196546,3.2587537716333594,0.9277616176321051,1.0207843566875883,0.2605599713993038,-0.19812021233084348,3.2595456671173175,3.2595181297681486,10588382
0,0,0,0,0,0,0,0,0,0,0,0,0.5345455806905723,-1.0748441070132382,-1.315928878298864,-0.1289530788604115,3.258611757589788,3.259012622715547,1.2266917379727051,1.7857656223494556,0.7166315813817478,0.6472775873276695,3.2588757227511076,3.2586943696372948,10589377
0,0,0,0,0,0,0,0,0,0,0,0,0.46848623376920623,-0.8389328168550511,-1.1810041285758173,-0.26875784024689675,3.258631033734206,3.2585378001377343,1.7054324871817215,1.8984866140468852,1.1214864756448835,0.7805241323142209,3.2590594362091343,3.25923960915084,10590371
0,0,0,0,0,0,0,0,0,0,0,0,-0.059103805911994683,-0.5554401344585579,-0.42309878147825974,-0.8637770132752672,3.2588890980349894,3.2589654158312573,1.4243737130610599,1.6811830975035544,1.1488959728355375,0.5739291040812855,3.259160144228952,3.2590952347630537,10591365
0,0,0,0,0,0,0,0,0,0,0,0,-0.19268394621419263,1.0256112606062007,-0.31765473099407326,-0.2151839274387273,3.2585877607569405,3.2589284371052307,0.9176152846354585,1.3427439621381714,0.8188057683474741,0.6563637323813118,3.2593458246404916,3.258904833663086,10592359
0,0,0,0,0,0,0,0,0,0,0,0,0.31860988361953296,-0.7630638793783044,0.41244615464760714,-0.557638401703644,3.2586294601713965,3.2587313483633213,0.9206550145930069,1.119306697762811,0.30753160804886914,-0.1828688481889782,3.2593470048125983,3.2592754077047594,10593354
0,0,0,0,0,0,0,0,0,0,0,0,0.4717954363579078,-0.5241419701745474,-0.39798078512916385,-0.05725841012697341,3.25926085224877,3.2589587281893166,0.8429442218475606,1.4905412424255897,0.13999752283066783,-0.3886704073751458,3.2593552660173493,3.259385557101435,10594348
0,0,0,0,0,0,0,0,0,0,0,0,1.053158051151997,-0.49273523005667086,-1.0665085514198007,-0.5942500942051523,3.258767540307944,3.2589071940073007,0.933183721683469,1.033173803469396,0.5021648051935202,0.10411871720775571,3.2594217490460573,3.259313959993596,10595342
0,0,0,0,0,0,0,0,0,0,0,0,1.1025592687796675,-0.5243858724100438,-1.4177946469538982,-0.09277018222453381,3.2584477136668815,3.2583981464383776,1.0452367359682007,-0.48756450266414914,1.0508311451472216,0.11135631935075752,3.2592329215088984,3.259278161439676,10596336
0,0,0,0,0,0,0,0,0,0,0,0,0.29698559009857056,-0.4978300330436269,-0.8318313278950843,-0.2588381002948404,3.2588548730438793,3.2588552664345816,-0.13121428861788373,1.6875249490171609,1.139530913773884,-1.0319444575243542,3.2590027879479866,3.2591459821636652,10597331
0,0,0,0,0,0,0,0,0,0,0,0,0.34389428423574975,-0.474579068968185,-0.17453171903273093,-0.5419802715754832,3.2589327644029575,3.2583497593819803,-0.18316585816930034,1.754517025293949,0.254449040228014,-1.7015154959577912,3.259292323504963,3.259199089908491,10598325
0,0,0,0,0,0,0,0,0,0,0,0,0.3546487992583274,-0.3301700628006533,0.17430551937884323,-0.9153914469947155,3.258549995249509,3.2587101052653913,-0.3105158699173772,0.9809976078269014,0.07749600142192857,-1.3063974149700899,3.259405226636556,3.259016556622571,10599319
0,0,0,0,0,0,0,0,0,0,0,0,0.27831762770624485,-0.46572187730334724,-0.50767424198082,-2.0060124881282433,3.259120018377306,3.2590425204089306,-0.39779510471762475,0.6600218725230541,-0.1747535913888921,-0.9445908718813505,3.259195156001467,3.2589359115285763,10600313
0,0,0,0,0,0,0,0,0,0,0,0,0.65858678324065,0.1769931646577316,0.5565420218160179,0.06430010370017333,3.2587872098430646,3.2588532994810695,-0.2871492489754258,0.2585532854262931,-0.5250278860363824,-1.1485446749382824,3.259338743607848,3.2590090821992255,10601308
0,0,0,0,0,0,0,0,0,0,0,0,1.3981703517640056,-0.4025429371050521,0.715408923078647,-0.4351310295022761,3.259214038755183,3.2583745429962327,0.00651179629704908,0.32868068560131614,-0.04740003912449349,-0.7492295085465321,3.2594544004743575,3.2591038893585074,10602302
0,0,0,0,0,0,0,0,0,0,0,0,1.040208809400655,-0.598053395516085,-0.3218884017334463,-0.8151822465875442,3.2587758015126944,3.2587647865730265,0.33773221227314615,0.9067045935040228,0.7329718509878934,0.27542069857367263,3.258911521305027,3.2592297743832797,10603296
0,0,0,0,0,0,0,0,0,0,0,0,0.7572354027313474,-0.7412413169433256,-0.7326170125743164,-1.7595945190899989,3.2588442514949145,3.2588572333880936,1.5646171050807363,1.7356389922665347,1.3371428653172095,0.4527254286677156,3.259610969973918,3.259642047839409,10604290
0,0,0,0,0,0,0,0,0,0,0,0,0.3825110891474591,-0.7420214107062114,-0.9253568202682518,-0.37343792598699643,3.258780522201123,3.2586058567292517,1.6140694634997204,0.9985054610378099,0.6983054755098194,0.08929378858730656,3.258985085366378,3.259121591940116,10605347
0,0,0,0,0,0,0,0,0,0,0,0,0.22273702892506467,-0.6847248416811038,-1.0764357657952028,-0.3943729989973305,3.258651883441434,3.258789570187279,1.294546520059886,1.2507774771186682,1.6890937911383856,-0.29630109027637125,3.2589182089469677,3.259104676139912,10606404
0,0,0,0,0,0,0,0,0,0,0,0,0.07533077899584519,-0.9064386613891913,-0.24492898522960962,-0.473105034006242,3.2585948417895843,3.2585696647846296,0.653160745282262,1.1190891527043763,0.596654498178303,-0.32543796604132247,3.259305698788845,3.2596302461183364,10607460
0,0,0,0,0,0,0,0,0,0,0,0,0.32932387939976204,-0.8928407183695695,-0.10677331766764135,0.07797633146957533,3.259025604608727,3.258498461067493,1.0696942293279443,1.4617592050742156,0.8465830858448846,0.1021966102357638,3.259319074072727,3.2590071152457134,10608517
0,0,0,0,0,0,0,0,0,0,0,0,0.4099792015527727,-0.8264214189554953,-0.8936589710305894,-0.24860089404593635,3.258950466984566,3.258821041443472,1.2094667326768318,1.6460430796197747,1.0867127045050506,0.36563344784181684,3.2593509387196224,3.2594835113863363,10609574
0,0,0,0,0,0,0,0,0,0,0,0,0.5480640587883066,-0.7552704161727923,-0.7603723001923919,-0.6109062565453358,3.258684928260437,3.258808059550292,1.6084459434087208,2.4290849124294414,1.5428480437812855,0.699747645824867,3.2594807576514193,3.2592974375840944,10610630
0,0,0,0,0,0,0,0,0,0,0,0,0.02588746856301648,0.6468066986568806,-1.6329459229643253,1.1759195537471239,3.259003574729392,3.258881230220941,1.4372120186343214,2.2217310335315505,0.7669659217555429,-0.025122717037524823,3.2593395303892527,3.2591829608896923,10611687
0,0,0,0,0,0,0,0,0,0,0,0,-0.5849672538003031,-0.149722927775732,-1.8518171014567733,-1.2991609929991952,3.258985085366378,3.2586282799992894,1.0759538621847464,1.7833305339015166,0.5691120349302333,-0.32666967233057886,3.259143621819451,3.259356052798754,10612743
0,0,0,0,0,0,0,0,0,0,0,0,0.6490226684835754,-0.9177864095910083,-1.7662986834405283,-1.2631806925750602,3.258596415352394,3.2585181306026136,0.905378473446187,0.8846231799868559,0.5719228114989772,-0.14687241874604448,3.2590425204089306,3.2592478703555905,10613800
0,0,0,0,0,0,0,0,0,0,0,0,0.6868326290646349,-0.5702568018742564,-1.5723574605414223,-0.6664089639674382,3.259003574729392,3.258647556143708,0.5211573149153369,1.1487618266060147,0.3068258651287395,-0.5891104446781211,3.259204203987623,3.258911127914325,10614857
0,0,0,0,0,0,0,0,0,0,0,0,1.3949803465581352,-0.50235874680981,-0.5020766856761796,-0.4935483686385594,3.2591333936611884,3.259026784780834,0.11026584032366755,0.36848474365290923,1.2632070497521222,-2.0134141341941514,3.2592297743832797,3.25898705231989,10615913
0,0,0,0,0,0,0,0,0,0,0,0,1.0047324424663118,-0.1939715139831917,0.13501798331951897,-0.500857174498698,3.258868641718464,3.258360380930946,-0.32805598116588364,1.9153268832357984,0.614239849357587,-0.9984885452376062,3.259217185880802,3.2591652583080837,10616970
0,0,0,0,0,0,0,0,0,0,0,0,0.4069190152786988,-0.3093522202196383,0.357660205085302,-0.6673881134257451,3.2588623474672254,3.258922929635397,0.03853104573858329,0.992640005664826,0.8940319054164774,-0.6460604364944024,3.2593651007849096,3.259289176379344,10618027
0,0,0,0,0,0,0,0,0,0,0,0,1.0225758579463788,-0.35741276233348396,-0.21588691662394008,0.3428679278931532,3.259232134727494,3.2590448807531454,-0.32935771100016964,1.5531631413892675,0.7328302303350246,-1.0671391567157693,3.2593175005099173,3.2595673036059503,10619083
0,0,0,0,0,0,0,0,0,0,0,0,0.6026729825345257,-0.2466217454220945,-0.572611638618903,-0.48285640273766545,3.258912701477134,3.258603496385037,-0.3523195329093376,0.8449733310906089,0.10069700487816392,-0.842379312798895,3.2589252899796115,3.2592612456394727,10620140
0,0,0,0,0,0,0,0,0,0,0,0,1.029876402601767,-0.8566625424221208,0.2571587153862375,-0.06444054418093494,3.2587045977955578,3.258849758964748,-0.4735802499747574,0.5548728650656777,-0.04045157914776553,-0.7380922243705063,3.259492952763194,3.259121591940116,10621196
0,0,0,0,0,0,0,0,0,0,0,0,2.848915010561348,-2.701414740254252,1.5279294881736623,-0.9815369464799101,3.258797044610625,3.258856053215987,0.7646720605697703,1.086696968876954,0.22069100388181254,-0.14700381124065057,3.259085793386196,3.2589248965889093,10622191
0,0,0,0,0,0,0,0,0,0,0,0,0.9973693486892401,-0.8934079877624497,-0.7064702995384096,-0.6908334125081792,3.258673519930067,3.258270294460093,1.0362300558364457,0.9313505210102225,-0.004734457103545321,-0.0018162848730426874,3.2589559744543997,3.2591298531448665,10623185
0,0,0,0,0,0,0,0,0,0,0,0,0.22801003790021393,-0.6957771534654085,-1.2728419748356312,-0.18588300775086972,3.258579892942892,3.258769507261456,0.8869630678848108,1.4018902542460265,-0.14525912347544712,-0.22200453543717089,3.2591412614752366,3.259293110286368,10624180
0,0,0,0,0,0,0,0,0,0,0,0,0.3479139504330099,-0.8520689191900395,-0.4576589414666821,1.2098011147738832,3.258738429395965,3.258937091700684,1.231471435007028,1.5085679779729815,0.23121145143645422,0.41624630883292063,3.25948901885617,3.2593308757937995,10625174
0,0,0,0,0,0,0,0,0,0,0,0,1.1103236210732008,-0.6830718139495627,-0.3016783477876601,-0.17304391539620342,3.2589803646779494,3.2587793420290163,2.455073482402978,0.9302561080761084,0.15900104749215213,0.014957501287162457,3.258917028774861,3.2590067218550107,10626168
0,0,0,0,0,0,0,0,0,0,0,0,0.1309483565030523,-0.7021725061145431,-1.2667042930965773,-1.666856594903063,3.258963055487043,3.2590928744188394,1.5879093751799314,1.9222777035567407,1.7557298488294897,0.7833502511203587,3.259385557101435,3.259448106223119,10627163
0,0,0,0,0,0,0,0,0,0,0,0,0.07598498773395869,-0.7923195591353844,-0.8654308277882132,-0.6583900878894433,3.2585684846125225,3.2589827250221637,1.6434620432212403,1.7265709431852034,1.3091668855150802,0.03712624754026503,3.2592439364485664,3.2592116784109684,10628157
0,0,0,0,0,0,0,0,0,0,0,0,0.4079650411564161,-0.3913128127232567,0.2905918110122455,-0.37460157568473523,3.2588584135602012,3.2587148259538203,0.8587408255029708,1.1316682138047474,0.7513549985116719,0.09013289095555435,3.2591939758293598,3.2588989328025497,10629151
0,0,0,0,0,0,0,0,0,0,0,0,0.4676451644474464,-0.5449401432204417,-0.5798004603148056,-0.07230717805709577,3.2588552664345816,3.2585055421001363,1.0339715998138905,1.0026285889898048,0.46017034771088927,-0.5437340073268422,3.259035045985585,3.259147162335773,10630146
0,0,0,0,0,0,0,0,0,0,0,0,0.44733164874692544,-0.6902315247334867,0.08078238734989016,-0.6417374660655815,3.258727021065595,3.258468169983407,0.4101318371453091,1.0389275358828944,0.39294184362195056,-0.4116814031221155,3.259138901131022,3.2589823316314614,10631140
0,0,0,0,0,0,0,0,0,0,0,0,-1.2796287512336673,0.546585696528637,-1.167946310990609,-0.30206387067602525,3.2589071940073007,3.2590252112180247,0.8521039309625543,0.2579030105952037,-0.20446639114217652,-0.8501196682595811,3.259169192215108,3.25880609259678,10632135
0,0,0,0,0,0,0,0,0,0,0,0,0.46181904814470387,-0.8315052070027836,-1.1628821924784412,-0.17883777366134804,3.259031505469263,3.258891458379204,0.3735138503925622,0.5002175212165739,0.24903795111631766,-0.2959269757183761,3.259370608254743,3.259210498238861,10633129
0,0,0,0,0,0,0,0,0,0,0,0,0.8702353084367881,-1.3213498021781207,-1.7073376783535095,-0.12736417381336376,3.258900112974657,3.2587777684662065,0.6438480071840295,0.8374576017210008,0.3537176434657148,-0.1704691732489077,3.259413094450604,3.259217185880802,10634123
0,0,0,0,0,0,0,0,0,0,0,0,0.7743298023140194,-0.989555822557905,-1.4898488747893421,0.150279575619647,3.2592427562764588,3.2591259192378423,0.44299530303422247,1.6891823040464287,0.44892330752889004,-1.1133448616677357,3.259528357926411,3.2589732836453056,10635118
0,0,0,0,0,0,0,0,0,0,0,0,0.7488719163980383,-0.4993477343735378,0.04290948425644448,0.7572601863455994,3.2588293026482225,3.258666045506721,1.8766345473092254,-0.5166537781541083,0.07745115488185345,-0.4230197099470746,3.259359593315076,3.259167618652298,10636112
0,0,0,0,0,0,0,0,0,0,0,0,0.3453561240859179,0.10489369689151011,0.5142104285014186,-0.293183468959745,3.2588151405829358,3.2587809155918257,-0.17744044988637564,0.7992302536046807,0.7313333787123416,-0.1680360517544808,3.2591007422328877,3.2592573117324486,10637106
0,0,0,0,0,0,0,0,0,0,0,0,0.619675328692833,-0.029374090358506483,0.5178607008291125,-0.6370639845209103,3.258854479653177,3.258810026503804,0.3023537996237039,1.688764916511168,0.739797179674766,-0.33965431924513806,3.2593293022309897,3.2589713166917935,10638163
0,0,0,0,0,0,0,0,0,0,0,0,0.3294033443216496,-0.1550026243928223,0.3694328152457255,-0.23763473482546027,3.258732921926131,3.2585055421001363,0.21316583313534654,1.0314554728812542,0.722554471797284,-0.42769555183596036,3.259415061404116,3.2592163990993974,10639219
0,0,0,0,0,0,0,0,0,0,0,0,0.5088622819021085,-0.5402796435689501,-0.2778825375893757,-1.157478577790091,3.2588473986205333,3.2587376426145602,0.570381113336219,0.618275644573646,0.9318977274772796,-0.29479401049542553,3.2588737557975955,3.2589827250221637,10640276
0,0,0,0,0,0,0,0,0,0,0,0,-0.5574897000181317,0.638380663201888,0.6367992325781862,-2.0403023887041076,3.2586188386224313,3.2589547942822925,-0.10085003386140272,0.45800473189410346,0.7586390207575584,-0.590644275026831,3.259284455690915,3.2593001913190114,10641332
0,0,0,0,0,0,0,0,0,0,0,0,-0.1983031390074657,1.021479871449455,-0.1794644450502926,-1.237820367553278,3.258738036005263,3.2587136457817127,0.31847377043649794,0.19691919051637535,0.182158777971122,-0.8986927984586713,3.259258098513853,3.2591577838847376,10642389
0,0,0,0,0,0,0,0,0,0,0,0,0.6405506063164003,-0.05030955675954303,-0.679406592775177,-0.9131424323490182,3.259288389597939,3.2586361478133377,0.5352320474662837,0.48149723786082715,0.5691997610568715,-0.5842575769731494,3.259307665742357,3.2591156910795798,10643445
0,0,0,0,0,0,0,0,0,0,0,0,0.5673201402807403,-0.822099235308079,-0.8691487633167222,-0.8751357764167519,3.2586027096036325,3.2585696647846296,0.9359382433817677,0.9712871517285289,0.6865442736797659,-0.2685532770816418,3.2595665168245453,3.2594933461538966,10644502
0,0,0,0,0,0,0,0,0,0,0,0,0.48342170517703353,-0.9047577029177788,-1.1723105874431832,-0.5106053961045022,3.2590417336275257,3.2586703728044473,1.4137942569010562,0.8118384256170303,2.073098978173611,-0.434845427852324,3.259210498238861,3.259212071801671,10645558
0,0,0,0,0,0,0,0,0,0,0,0,-0.2765481563267894,-1.017473580536077,-1.1722842302661216,-0.9072868117435946,3.2588588069509035,3.2586396883296596,1.9886820541241232,0.25884046063905486,-0.19016427876523478,0.00438197903418291,3.2592462967927807,3.2589119146957293,10646615
0,0,0,0,0,0,0,0,0,0,0,0,0.05784180853865248,-1.2460894401180076,-0.9249008804441547,-1.4404700804317092,3.2584516475739056,3.258640081720362,0.6339097778689596,0.7856622082784425,0.7473675903520096,-0.23609343005340458,3.259002001166582,3.2591849278432043,10647671
0,0,0,0,0,0,0,0,0,0,0,0,0.5499365985317943,-0.5724794593428921,-0.7267889293180619,-0.5581163714070763,3.259090120683923,3.259051568395086,1.0880081400880979,1.1304310000456572,0.7654454666907151,-0.09208764935584657,3.259256131560341,3.2593745421617673,10648728
0,0,0,0,0,0,0,0,0,0,0,0,0.3364666743834822,-0.9782958004827261,-1.2743667571981854,-0.4518229903963793,3.2589988540409625,3.2588127802387215,1.0162599702191317,1.606049013858916,0.9113525046530372,-0.2930925957074876,3.2592222999599336,3.2589174221655632,10649784
0,0,0,0,0,0,0,0,0,0,0,0,0.4151416677405438,-0.7801787352775019,-0.723558404869843,1.3380712673749051,3.2586569975205655,3.258625919655075,0.8494005500555694,1.5487119255914599,0.6538310830391745,-0.21776457044655922,3.25938634388284,3.2589461396868393,10650841
0,0,0,0,0,0,0,0,0,0,0,0,2.3437183432243276,-1.8467061694510183,0.4298568403550196,-1.0721784916136852,3.2587986181734343,3.25907989252566,0.7398325848379832,1.395089709173406,1.1708790386771009,-0.263839276294622,3.259252591044019,3.259435911111344,10651897
0,0,0,0,0,0,0,0,0,0,0,0,0.7354053658730227,-0.14815172531029286,0.2229470995601534,-0.3583285758887023,3.2589437793426246,3.2589414189984103,1.0203760171384832,0.8785118554248637,0.589474724468556,-0.08384572074958332,3.2591318200983785,3.2590507816136816,10652954
0,0,0,0,0,0,0,0,0,0,0,0,0.4049618965341921,-0.3302133357779188,-0.2560796446895176,-0.8879229411986995,3.2589776109430324,3.2586172650596215,0.22273152145523087,1.3800735926715841,0.21671107014549615,-0.060507030547503296,3.259590907048095,3.259298617756202,10654010
0,0,0,0,0,0,0,0,0,0,0,0,0.43089381824658135,-0.37536908094514376,-1.034668688138567,-0.6014153124589101,3.2589225362446945,3.258736069051751,0.8395374583646605,1.1507354677600226,0.8380394265698702,0.6726571884938704,3.2592474769648883,3.259127492800652,10655067
0,0,0,0,0,0,0,0,0,0,0,0,0.9890833603243064,-0.25879915461530145,-0.6510993780016158,-0.35884745822518566,3.2588253687411983,3.258210892464029,0.47981077191958094,0.49730879036292913,2.3034603123021498,-1.7230709461058313,3.259052355176491,3.2590409468461212,10656123
0,0,0,0,0,0,0,0,0,0,0,0,0.7540485446510964,-0.26346870225294855,0.2913943280451689,-0.31187700174772753,3.2587120722189034,3.2585787127707855,0.6906485188780449,0.7008160949726218,0.5262717874374137,-0.4812021948340171,3.259372575208255,3.2590787123535527,10657180
0,0,0,0,0,0,0,0,0,0,0,0,0.9573501059234268,-0.5686450801664686,-0.3330819407799173,0.5041199569845148,3.258584220240619,3.258738429395965,-0.0328729072657713,0.5712855185610675,0.25673896750676245,0.22229328421274236,3.259494132935301,3.25944338553469,10658236
0,0,0,0,0,0,0,0,0,0,0,0,0.6282091532002869,-0.494099902403343,0.29379676506480756,0.3688974104997409,3.258790750359386,3.2587872098430646,0.5791958188051961,1.2974151250618844,1.1940320484676419,0.6329200068616875,3.2591853212339066,3.2592679332814134,10659293
0,0,0,0,0,0,0,0,0,0,0,0,0.708178795358991,-0.40863734586684053,-0.5175994894027102,-1.8074174532195868,3.2589583347986144,3.2584878395185277,0.4000913262476118,0.5375416442801528,0.3202259326250473,-0.41320303835905053,3.2593973588225076,3.259528751317114,10660349
0,0,0,0,0,0,0,0,0,0,0,0,1.5837453345948855,-0.745050912505497,-0.4104013097764623,-0.387097631346897,3.259062976725456,3.258966989394067,-0.20673782905791152,-0.3771861525995913,-0.25810403324413694,-0.00952556246823817,3.2593202542448347,3.2592765878768666,10661406
0,0,0,0,0,0,0,0,0,0,0,0,1.8566026993516322,-0.2397039699201548,0.21277952346557658,0.38696269833596925,3.258767933698646,3.258551962203021,0.3680150351542276,0.9318678297838962,0.6270761879773363,0.25403125930205095,3.258905620444491,3.2590008209944745,10662462
0,0,0,0,0,0,0,0,0,0,0,0,0.2775654646832305,-0.2231107500923574,0.3126153960961575,-0.9168808241940527,3.258700270497831,3.2586943696372948,1.1325907150019068,1.206967128153697,0.8997954725975361,-0.2802755332321564,3.2594732832280733,3.259110577000448,10663519
0,0,0,0,0,0,0,0,0,0,0,0,0.7782165024538639,-0.48047166829963545,-0.8826672414144565,-0.32466574009248494,3.2586916159023778,3.2587942908757075,0.774717685546599,0.45994375466629916,-0.006634140805499649,-1.0843519668998678,3.259269113453521,3.2592002700805986,10664575
0,0,0,0,0,0,0,0,0,0,0,0,0.7178176543495242,-0.615943231099037,-0.31193168305536306,-0.47989810465551663,3.258669586023043,3.2586396883296596,0.6395222830202917,0.317083527694169,0.9303701913798083,-1.461763532371942,3.2591027091863998,3.2590322922506676,10665632
0,0,0,0,0,0,0,0,0,0,0,0,0.5227647093253982,-0.6092127095714461,-0.3312078274736199,-1.0196828627208305,3.2591833542803945,3.2586326072970158,0.2988089560042567,1.165842457514102,0.9451199823760965,-0.9563304372227712,3.2592234801320408,3.2593989323853174,10666688
0,0,0,0,0,0,0,0,0,0,0,0,0.0673421940019362,-0.37886003003836033,-0.5248768240066556,-0.19772996875404938,3.258832449773842,3.258323402204919,0.9764323087253938,1.375206169510623,0.8994630574539968,-0.21191996478080327,3.2592510174812097,3.259597594690036,10667745
0,0,0,0,0,0,0,0,0,0,0,0,-0.00921124329700986,-0.6479447779589627,-0.39458582336733616,-0.91365620060637,3.2587486575542277,3.258651490050732,1.2240607409549642,0.931634549097365,0.9703327858844739,-0.1556772894474613,3.2593552660173493,3.259343070905574,10668801
0,0,0,0,0,0,0,0,0,0,0,0,0.3226578739473669,-0.6577201435232334,-0.6498680651030618,-1.5997032284382853,3.2590704511488022,3.259115297688877,1.2596102785599563,1.6046080237159757,1.5421179106376064,0.20579054424650003,3.259326155105371,3.2591872881874187,10669858
0,0,0,0,0,0,0,0,0,0,0,0,0.7429694822990277,-1.008830393413352,-0.8546483820257642,-0.13917572965332622,3.258581073115,3.258679420790603,1.6784923050990468,2.008127356544418,1.4787682388744638,0.0036785964582677433,3.2590212773110006,3.2593230079797513,10670914
0,0,0,0,0,0,0,0,0,0,0,0,-0.045823329189220566,-0.8569721409049202,1.3704441750579088,-0.41885881648764806,3.2588237951783885,3.258979971287247,1.2601783347342412,1.3779787871812328,1.0445841007928969,-0.0012344600241732625,3.259144801991558,3.2590079020271183,10671909
0,0,0,0,0,0,0,0,0,0,0,0,0.9845825772979947,-0.8714044656043607,0.6032662157137652,0.17078152546662395,3.258647556143708,3.2586027096036325,1.021770980569241,1.008699787700151,1.0285247121482743,-0.0275873097881448,3.2592297743832797,3.258881623611644,10672903
0,0,0,0,0,0,0,0,0,0,0,0,0.4410566736527292,-0.2230552820033171,0.08415492584168027,0.2266972931262604,3.258533472840008,3.258457941825144,0.6657232839731316,0.9185133956090683,0.732455722386327,-0.12195741199939393,3.2588702152812736,3.2592124651923733,10673898
0,0,0,0,0,0,0,0,0,0,0,0,0.7037869815572477,-0.4917112340582888,0.21604781342122714,-0.19356396121549144,3.2587832759360404,3.2589103411329194,1.1227771905395019,0.9303131497279583,0.9943276517781795,0.4261758835525374,3.2592765878768666,3.258961875314936,10674892
0,0,0,0,0,0,0,0,0,0,0,0,0.6047233348755043,-0.41928446522765933,-0.5446651631194548,-0.20105175984522816,3.2586927960744854,3.2588359902901636,0.02984969971772429,2.121278717670288,0.9357124371185823,-0.18363045258885055,3.2596243452578,3.259107036484126,10675887
0,0,0,0,0,0,0,0,0,0,0,0,0.44462000663518986,-0.43201970243688853,-0.2640123682036839,-0.06186226151731747,3.25887296901619,3.258352119726195,0.24573268243464022,1.98716395940351,0.8175854703885876,0.04191735290495787,3.259263212592985,3.2592364620252203,10676881
0,0,0,0,0,0,0,0,0,0,0,0,0.6392205523515406,-0.19441997938394298,-0.7584962199325823,-0.0774763318868079,3.258754558414764,3.259064550288266,0.8508974016782523,1.5087182532213037,0.5710121120228902,-0.0831812838532071,3.2590759586186357,3.259287209425832,10677876
0,0,0,0,0,0,0,0,0,0,0,0,0.5739011733414141,-0.5653622347548287,-0.9995857119066371,-1.123105671776017,3.2585456679517826,3.2585342596214124,0.2337429206064845,0.8963143582718799,1.1400320935287587,-0.31371256276518855,3.2594512533487383,3.2595220636751727,10678870
0,0,0,0,0,0,0,0,0,0,0,0,1.7322692075096615,-1.0522044720893469,-0.7838581185171745,-0.9536207620645477,3.2589264701517187,3.2584839056115036,0.041632144645708156,0.7170143505351961,0.40989855645877793,-0.34302174365779675,3.2592116784109684,3.2589461396868393,10679864
0,0,0,0,0,0,0,0,0,0,0,0,0.8635390119003071,-0.8176558873243197,0.6589129041329508,-1.276724347677749,3.258611757589788,3.2586046765571446,-0.047139221088793405,0.6297807490564284,0.6973684188566707,-0.6101371777221176,3.2588702152812736,3.2589823316314614,10680859
0,0,0,0,0,0,0,0,0,0,0,0,-0.822069731005398,0.427338353078169,-0.36584469864901287,-1.3775094720732537,3.2588218282248764,3.258970136519687,0.13004631162241834,0.27152495044767266,0.10865962608571363,-1.0368909522165002,3.25904409397174,3.2594685625396442,10681853
0,0,0,0,0,0,0,0,0,0,0,0,0.34914841045718314,-0.28070550926989424,-0.692281483683763,-0.400228619602754,3.2591042827492096,3.25853543979352,0.5706214750553935,0.5240467696245633,0.357430858305795,-0.4552136248604804,3.259383590147923,3.259117264642389,10682848
0,0,0,0,0,0,0,0,0,0,0,0,0.15404589820455292,-0.5212167169114014,0.1584711502160013,-1.1250167638083415,3.2586188386224313,3.258793110703601,0.5298673784574721,0.20812846519094289,0.14698846900325643,-1.1949498289763723,3.259151096242797,3.2590712379302067,10683842
0,0,0,0,0,0,0,0,0,0,0,0,0.2948935383431361,-0.9172262212307717,-0.9635066704161966,-0.2804926848998886,3.258645195799493,3.258699483716426,0.8267967136855975,0.012976385709808552,-0.07470725473251995,-0.5179696700536811,3.2591892551409307,3.259373755380363,10684837
0,0,0,0,0,0,0,0,0,0,0,0,0.793716096128952,-1.0804617262437015,-0.9533658448893838,-0.5894790517662825,3.259016556622571,3.258647556143708,2.7396786737058965,-0.7654399592208814,0.8410693217598584,-1.277872655138094,3.2593753289431726,3.259117658033092,10685831
0,0,0,0,0,0,0,0,0,0,0,0,0.07566634126500382,-0.7385875032648448,-0.46199410700727783,-0.5263595135640518,3.258725840893488,3.258527178588769,0.886594067405947,1.53468558009691,0.7214274074348697,-0.35541158383030697,3.259437484674154,3.259322221198347,10686825
0,0,0,0,0,0,0,0,0,0,0,0,-0.4446805888033615,-0.9963669891794906,0.2710005606413556,-1.299136996166348,3.2584441731505596,3.258761246056705,1.1518129648939328,1.5615018441083244,1.2152723926630489,-0.2933899990785121,3.2591404746938313,3.2591813873268825,10687882
0,0,0,0,0,0,0,0,0,0,0,0,0.41612868501289907,-0.5366270108970416,0.17746523350062768,0.4706250990182279,3.258696336590807,3.258617658450324,1.2801621890261399,1.7969607349587362,1.352271884950624,0.29741084544787943,3.2590488146601695,3.2591211985494133,10688938
0,0,0,0,0,0,0,0,0,0,0,0,0.5732320157566089,0.08601015639426188,-0.06746650546389883,0.6258456618601873,3.2587313483633213,3.258470923718324,1.1585175226351645,1.5985132215634847,1.5292847191434764,-0.003967345233839182,3.2595181297681486,3.2591546367591184,10689995
0,0,0,0,0,0,0,0,0,0,0,0,0.09449874097093831,-0.02925607314778246,-0.4213135744707077,0.6935958020205262,3.2588532994810695,3.2586636851625066,0.8818808534003321,1.2578899810183024,1.2370595499348105,-0.3513533653442103,3.2593745421617673,3.2593623470499926,10691051
0,0,0,0,0,0,0,0,0,0,0,0,0.7534588519881786,-0.5715176190754914,-0.29178221127774845,-0.47547481959758037,3.2590130161062496,3.258769507261456,0.760500938952081,0.6414003302336132,0.4762226553228682,-0.7560233659772116,3.2593458246404916,3.2589803646779494,10692108
0,0,0,0,0,0,0,0,0,0,0,0,0.7955103511226594,-0.3394796537732665,-1.11789167140623,-0.47729189125202787,3.2589052270537886,3.2585200975561257,0.6661914189090036,1.0275487098155867,0.7624037697796546,-0.18984838603119683,3.2593001913190114,3.259518523158851,10693164
0,0,0,0,0,0,0,0,0,0,0,0,0.3917793740963189,-0.3374422833254675,-0.05165337939898722,-0.8311881340966384,3.259016163231869,3.2585582564542594,0.8620594694685303,1.2394659208614731,0.7217641498761356,-0.429664078910837,3.259171552559322,3.259205777550432,10694221
0,0,0,0,0,0,0,0,0,0,0,0,0.974990925191751,-0.29070392736243333,-0.17130001441240483,-0.22074214467312628,3.2590130161062496,3.259374148771065,1.116966023083451,1.6129962936635367,-0.7371598884057865,1.6897023665550193,3.2591542433684157,3.25911411751677,10695277
0,0,0,0,0,0,0,0,0,0,0,0,1.4261726887431965,-0.08851172787090872,-0.20480864105327617,-1.328194800400114,3.25869200929308,3.258356840414624,0.5969794388984965,1.8841959100003136,-0.12099950563901729,0.4149909991015195,3.259191615485145,3.259494919716706,10696334
0,0,0,0,0,0,0,0,0,0,0,0,0.6689998351335328,-0.5387328313270606,-1.1013771297189152,-2.6992971181031606,3.258662504990399,3.258464236076383,-0.11738149134892122,0.9582375953480714,1.3223478343901436,-0.873606666756471,3.2592860292537242,3.2590464543159547,10697390
0,0,0,0,0,0,0,0,0,0,0,0,0.6034920219769503,-0.582571897813308,-1.1026945951812976,-1.2203782105896723,3.2585806797242975,3.258849758964748,-0.24903047669297176,0.75245334535281,0.05687800131773964,-0.9924181333086649,3.259235675243816,3.259099168670078,10698447
0,0,0,0,0,0,0,0,0,0,0,0,0.5151144403355646,-0.7459155852694016,-0.693432938269727,-1.3611373378202125,3.258940238826303,3.258629066780694,-0.08742006867171152,0.42753032774094674,0.30329715052809125,-0.8193152093070994,3.25942056887395,3.259265179546497,10699503
0,0,0,0,0,0,0,0,0,0,0,0,1.0437800101971637,-0.5500337660352904,-0.5449401432204417,-0.6327465215619231,3.2588352035087587,3.2589193891190753,0.20912020315172708,0.8958548779314611,0.43576478192386414,-0.6730049458748038,3.2595370125218643,3.2588178943178523,10700560
0,0,0,0,0,0,0,0,0,0,0,0,0.8968391414688994,-0.6587480734286395,-1.0804208136106508,1.3481947837108115,3.25859090788256,3.258974463817413,0.12914859403951098,2.2285481010136725,0.6250982195256017,-0.1791206215763833,3.259407193590068,3.259377689287387,10701616
0,0,0,0,0,0,0,0,0,0,0,0,1.2179238459973152,-0.8382258937628142,0.760889215575363,1.4904979694483242,3.258966596003365,3.2586038897757397,0.8365284128819004,1.6519463005001902,0.7320705928886644,-0.23254465252693324,3.259335203091526,3.2593230079797513,10702673
0,0,0,0,0,0,0,0,0,0,0,0,1.0278661761124344,-0.564618332936565,0.23014968993064042,0.9169327517667712,3.2591082166562337,3.2586322139063135,-0.092135643021541,0.6292756353945298,-0.1535761897058713,-1.135209910298575,3.2592785548303786,3.2592309545553864,10703729
0,0,0,0,0,0,0,0,0,0,0,0,0.35415273358258403,-0.48319471874174097,-0.0405239630370096,-0.8225732711044872,3.258623952701563,3.2588108132852094,1.0861875279173288,0.9692914806951857,0.22234049109703197,0.20970124121919168,3.2592805217838907,3.2589418123891125,10704786
0,0,0,0,0,0,0,0,0,0,0,0,0.17089600216102624,-0.24791206692601048,-0.055741888969169734,-0.8750594586204836,3.2586825679162224,3.258496887504683,1.6142756002277852,0.11369148656028348,2.660777480694947,-1.2580504844248872,3.258959908361424,3.2592624258115794,10705843
0,0,0,0,0,0,0,0,0,0,0,0,0.12683821044423704,-0.7825587490271031,-0.5092580329487363,-1.2527774754497378,3.25876203283811,3.258625919655075,2.5212343241255666,-0.5447052889711009,0.8459044868832215,-0.0703567469545301,3.2593072723516547,3.2591038893585074,10706899
0,0,0,0,0,0,0,0,0,0,0,0,0.2796236848382574,-0.7545992916344751,-1.3093797098850857,-0.7575516888560877,3.2583237955956212,3.2583202550792993,0.9750841587882231,0.147163134475128,0.9407643605189753,-0.31264765413375545,3.2593438576869795,3.2592439364485664,10707956
0,0,0,0,0,0,0,0,0,0,0,0,0.061421270539912046,-0.6613479925808897,-0.33299303448117185,-0.38016294004475354,3.2590059350736063,3.258979184505842,0.7059089310060657,0.17144753592580986,0.5576195189499281,-0.491969298359072,3.2590617965533486,3.259197909736384,10709013
0,0,0,0,0,0,0,0,0,0,0,0,0.4549701160156865,-0.5483728704897011,-0.3630280212197329,0.061403174567601033,3.259136540786807,3.2587561319775737,0.6675254067808875,0.4125043764715643,0.5994495391189503,-0.3050127273813161,3.2596235584763953,3.2593253683239656,10710069
